17793 44063
19129 43611
19130 43686
19132 43723
19134 43711
19136 43648
19138 43510
19140 43356
19143 43248
19145 43116
19147 43063
19149 43016
19151 43009
19153 43022
19155 43034
19157 43137
19159 43311
19161 43571
19163 43929
19165 44346
19167 44749
19169 45156
19171 45609
19173 46064
19175 46584
19177 47083
19179 47523
19181 47803
19183 47895
19185 47812
19187 47510
19189 47040
19191 46485
19193 45946
19195 45440
19197 45026
19199 44617
19201 44234
19203 43959
19205 43744
19207 43672
19209 43704
19211 43811
19214 43888
19216 43944
19218 43907
19220 43807
19222 43667
19224 43595
19226 43490
19228 43510
19230 43496
19232 43521
19234 43501
19236 43452
19238 43352
19240 43293
19242 43305
19244 43348
19246 43411
19248 43521
19250 43511
19252 43480
19254 43427
19256 43365
19258 43354
19260 43395
19262 43465
19264 43538
19266 43538
19268 43495
19270 43423
19272 43355
19274 43327
19277 43379
19279 43462
19281 43554
19283 43617
19285 43604
19287 43555
19289 43445
19291 43389
19293 43384
19295 43401
19297 43476
19299 43502
19301 43508
19303 43455
19305 43404
19307 43371
19309 43377
19311 43483
19313 43577
19315 43666
19317 43672
19319 43648
19321 43554
19323 43507
19325 43483
19327 43517
19329 43592
19331 43680
19333 43697
19335 43692
19337 43646
19339 43583
19342 43564
19344 43563
19346 43621
19348 43676
19350 43736
19352 43732
19354 43698
19356 43667
19358 43674
19360 43708
19362 43783
19364 43869
19366 43914
19368 43939
19370 43903
19372 43876
19374 43825
19376 43866
19378 43951
19380 44051
19382 44143
19384 44178
19386 44182
19388 44122
19390 44081
19392 44088
19394 44132
19396 44227
19398 44315
19400 44372
19402 44356
19404 44346
19406 44316
19409 44331
19411 44418
19413 44514
19415 44612
19417 44649
19419 44636
19421 44570
19423 44483
19425 44475
19427 44496
19429 44586
19431 44661
19433 44726
19435 44740
19437 44724
19439 44676
19441 44655
19443 44664
19445 44705
19447 44748
19449 44729
19451 44702
19453 44561
19455 44444
19457 44310
19459 44262
19461 44275
19463 44303
19465 44312
19467 44257
19469 44143
19471 44050
19474 43953
19476 43935
19478 43917
19480 43950
19482 43932
19484 43867
19486 43770
19488 43624
19490 43542
19492 43548
19494 43532
19496 43646
19498 43674
19500 43683
19502 43677
19504 43588
19506 43505
19508 43461
19510 43496
19512 43524
19514 43595
19516 43596
19518 43571
19520 43498
19522 43420
19524 43393
19526 43377
19528 43432
19530 43483
19532 43536
19534 43495
19536 43461
19539 43393
19541 43365
19543 43377
19545 43429
19547 43482
19549 43526
19551 43505
19553 43487
19555 43421
19557 43408
19559 43426
19561 43521
19563 43602
19565 43617
19567 43619
19569 43546
19571 43436
19573 43359
19575 43321
19577 43346
19579 43415
19581 43510
19583 43518
19585 43507
19587 43470
19589 43411
19591 43407
19593 43436
19595 43482
19597 43560
19599 43577
19601 43536
19604 43490
19606 43423
19608 43408
19610 43442
19612 43524
19614 43560
19616 43599
19618 43560
19620 43460
19622 43405
19624 43389
19626 43411
19628 43515
19630 43649
19632 43720
19634 43719
19636 43658
19638 43567
19640 43474
19642 43477
19644 43520
19646 43580
19648 43666
19650 43702
19652 43667
19654 43592
19656 43529
19658 43480
19660 43515
19662 43595
19664 43632
19666 43655
19669 43624
19671 43533
19673 43487
19675 43467
19677 43545
19679 43598
19681 43691
19683 43694
19685 43674
19687 43611
19689 43508
19691 43492
19693 43532
19695 43613
19697 43695
19699 43752
19701 43727
19703 43680
19705 43567
19707 43539
19709 43529
19711 43558
19713 43644
19715 43685
19717 43686
19719 43655
19721 43552
19723 43487
19725 43477
19727 43507
19729 43574
19732 43652
19734 43717
19736 43705
19738 43674
19740 43610
19742 43596
19744 43602
19746 43645
19748 43663
19750 43673
19752 43617
19754 43542
19756 43482
19758 43451
19760 43524
19762 43604
19764 43744
19766 43772
19768 43788
19770 43713
19772 43626
19774 43593
19776 43593
19778 43645
19780 43704
19782 43729
19784 43729
19786 43654
19788 43557
19790 43501
19792 43510
19794 43586
19796 43664
19799 43735
19836 43716
19837 43638
19840 43571
19842 43536
19844 43580
19846 43641
19848 43713
19850 43754
19852 43730
19854 43658
19856 43598
19858 43558
19860 43617
19862 43660
19864 43738
19866 43782
19868 43736
19870 43711
19872 43611
19874 43570
19876 43589
19878 43649
19880 43723
19882 43786
19884 43797
19886 43760
19888 43711
19890 43651
19892 43669
19894 43682
19896 43752
19898 43814
19900 43828
19902 43792
19904 43754
19906 43677
19908 43641
19910 43670
19912 43694
19914 43788
19916 43808
19918 43782
19920 43742
19922 43697
19924 43707
19927 43789
19929 43903
19931 44001
19933 44078
19935 44044
19937 44007
19939 43889
19941 43867
19943 43872
19945 43938
19947 44031
19949 44079
19951 44059
19953 44004
19955 43906
19957 43870
19959 43844
19961 43867
19963 43957
19965 43969
19967 43950
19969 43904
19971 43776
19973 43698
19975 43661
19977 43655
19979 43727
19981 43801
19983 43792
19985 43770
19987 43704
19989 43605
19992 43582
19994 43611
19996 43642
19998 43741
20000 43729
20002 43708
20004 43610
20006 43557
20008 43496
20010 43517
20012 43582
20014 43649
20016 43674
20018 43620
20020 43508
20022 43295
20024 43128
20026 42975
20028 42937
20030 42981
20032 43087
20034 43196
20036 43323
20038 43461
20040 43682
20042 44022
20044 44450
20046 45002
20048 45521
20050 46080
20052 46554
20054 47000
20056 47355
20059 47614
20061 47723
20063 47728
20065 47644
20067 47329
20069 46849
20071 46257
20073 45630
20075 45094
20077 44651
20079 44350
20081 44128
20083 44001
20085 43932
20087 43856
20089 43838
20091 43831
20093 43838
20095 43853
20097 43906
20099 43909
20101 43833
20103 43764
20105 43621
20107 43530
20109 43502
20111 43499
20113 43524
20115 43538
20117 43501
20119 43409
20121 43342
20124 43255
20126 43289
20128 43345
20130 43427
20132 43527
20134 43527
20136 43542
20138 43473
20140 43414
20142 43381
20144 43404
20146 43452
20148 43533
20150 43496
20152 43479
20154 43401
20156 43348
20158 43356
20160 43396
20162 43474
20164 43568
20166 43616
20168 43589
20170 43543
20207 43505
20209 43526
20211 43564
20213 43649
20215 43761
20217 43767
20219 43758
20221 43772
20223 43710
20225 43733
20227 43754
20229 43814
20231 43863
20233 43851
20235 43801
20237 43733
20239 43692
20241 43663
20243 43750
20245 43829
20247 43941
20249 44028
20252 44051
20254 44015
20256 43951
20258 43926
20260 43948
20262 44015
20264 44122
20266 44204
20268 44212
20270 44187
20272 44131
20274 44121
20276 44156
20278 44293
20280 44381
20282 44469
20284 44495
20286 44452
20288 44384
20290 44340
20292 44333
20294 44378
20296 44508
20298 44577
20300 44637
20302 44655
20304 44621
20306 44628
20308 44646
20310 44698
20312 44760
20314 44811
20317 44839
20319 44808
20321 44742
20323 44665
20325 44608
20327 44605
20329 44630
20331 44636
20333 44580
20335 44524
20337 44400
20339 44285
20341 44197
20343 44163
20345 44129
20347 44143
20349 44112
20351 44010
20353 43910
20355 43807
20357 43733
20359 43735
20361 43760
20363 43814
20365 43881
20367 43864
20369 43795
20371 43685
20373 43552
20375 43505
20377 43511
20379 43533
20382 43574
20384 43549
20386 43495
20388 43404
20390 43327
20392 43303
20394 43337
20396 43379
20398 43476
20400 43483
20402 43479
20404 43440
20406 43412
20408 43424
20410 43429
20412 43505
20414 43557
20416 43568
20418 43577
20420 43482
20422 43426
20424 43374
20426 43386
20428 43433
20430 43470
20432 43490
20434 43440
20436 43373
20438 43328
20440 43296
20442 43337
20444 43426
20447 43505
20449 43560
20451 43536
20453 43501
20455 43404
20457 43365
20459 43367
20461 43404
20463 43502
20465 43536
20467 43561
20469 43508
20471 43433
20473 43331
20475 43326
20477 43356
20479 43426
20481 43515
20483 43535
20485 43523
20487 43457
20489 43420
20491 43396
20493 43452
20495 43502
20497 43586
20499 43614
20501 43599
20503 43517
20505 43471
20507 43411
20509 43442
20511 43505
20514 43579
20516 43629
20518 43616
20520 43563
20522 43461
20524 43392
20526 43424
20528 43424
20530 43510
20532 43571
20534 43573
20536 43555
20538 43515
20540 43470
20542 43483
20544 43543
20546 43619
20548 43686
20550 43711
20552 43686
20554 43610
20556 43568
20558 43526
20560 43574
20562 43649
20564 43701
20566 43732
20568 43692
20570 43611
20572 43542
20574 43513
20576 43513
20579 43566
20581 43623
20583 43660
20585 43636
20587 43593
20589 43582
20591 43554
20593 43617
20595 43663
20597 43699
20599 43720
20601 43657
20603 43570
20605 43489
20607 43460
20609 43507
20611 43617
20613 43736
20615 43807
20617 43766
20619 43702
20621 43604
20623 43505
20625 43498
20627 43532
20629 43592
20631 43669
20633 43682
20635 43617
20637 43564
20639 43490
20641 43487
20644 43514
20646 43586
20648 43657
20650 43667
20652 43620
20654 43568
20656 43479
20658 43455
20660 43507
20662 43548
20664 43613
20666 43669
20668 43611
20670 43557
20672 43493
20674 43479
20676 43510
20678 43577
20680 43655
20682 43699
20684 43672
20686 43610
20688 43536
20690 43521
20692 43535
20694 43599
20696 43688
20698 43744
20700 43744
20702 43677
20704 43599
20707 43514
20709 43457
20711 43514
20713 43543
20715 43633
20717 43644
20719 43626
20721 43589
20723 43529
20725 43538
20727 43570
20729 43623
20731 43676
20733 43680
20735 43632
20737 43557
20739 43487
20741 43467
20743 43514
20745 43570
20747 43667
20749 43669
20751 43655
20753 43583
20755 43462
20757 43452
20759 43445
20761 43523
20763 43633
20765 43707
20767 43741
20769 43716
20772 43663
20774 43632
20776 43635
20778 43649
20780 43713
20782 43727
20784 43705
20786 43632
20788 43588
20790 43505
20792 43505
20794 43560
20796 43639
20798 43691
20800 43726
20802 43688
20804 43629
20806 43576
20808 43573
20810 43624
20812 43708
20814 43778
20816 43795
20818 43776
20820 43714
20822 43632
20824 43586
20826 43598
20828 43674
20830 43769
20832 43844
20834 43878
20836 43885
20839 43832
20841 43825
20843 43835
20845 43920
20847 43950
20849 44004
20851 43965
20853 43897
20855 43822
20857 43776
20859 43803
20861 43897
20863 43973
20865 44063
20867 44053
20869 43956
20871 43875
20873 43755
20875 43689
20877 43679
20879 43689
20881 43725
20883 43692
20885 43652
20887 43566
20889 43493
20891 43480
20893 43529
20895 43595
20897 43679
20899 43705
20902 43694
20904 43616
20906 43545
20908 43515
20910 43514
20912 43568
20914 43664
20916 43672
20918 43667
20920 43580
20922 43448
20924 43317
20926 43189
20928 43084
20930 43008
20932 42972
20934 42947
20936 42959
20938 43036
20940 43168
20942 43436
20944 43783
20946 44249
20948 44693
20950 45185
20952 45625
20954 46085
20956 46516
20958 46978
20960 47380
20962 47641
20964 47731
20967 47675
20969 47443
20971 46997
20973 46478
20975 45917
20977 45440
20979 45014
20981 44656
20983 44347
20985 44072
20987 43873
20989 43752
20991 43725
20993 43791
20995 43864
20997 43910
20999 43919
21001 43853
21003 43783
21005 43648
21007 43585
21009 43548
21011 43535
21013 43570
21015 43561
21017 43521
21019 43464
21021 43407
21023 43370
21025 43380
21027 43429
21029 43510
21032 43511
21034 43510
21036 43433
21038 43356
21040 43295
21042 43273
21044 43320
21046 43383
21048 43429
21050 43421
21052 43377
21054 43306
21056 43246
21058 43264
21060 43274
21062 43414
21064 43521
21066 43557
21068 43602
21070 43520
21072 43439
21074 43399
21076 43396
21078 43471
21080 43532
21082 43605
21084 43593
21086 43545
21088 43507
21090 43448
21092 43470
21094 43511
21096 43576
21099 43605
21101 43582
21103 43554
21105 43437
21107 43432
21109 43414
21111 43483
21113 43563
21115 43624
21117 43642
21119 43617
21121 43540
21123 43499
21125 43470
21127 43514
21129 43564
21131 43652
21133 43682
21135 43686
21137 43663
21139 43660
21141 43672
21143 43757
21145 43859
21147 43910
21149 43953
21151 43934
21153 43863
21155 43841
21157 43813
21159 43876
21162 43969
21164 44071
21166 44138
21168 44154
21170 44110
21172 44071
21174 44041
21176 44106
21178 44147
21180 44265
21182 44327
21184 44349
21186 44327
21188 44300
21190 44271
21192 44255
21194 44336
21196 44400
21198 44478
21200 44512
21202 44489
21204 44477
21206 44437
21208 44469
21210 44561
21212 44662
21214 44785
21216 44842
25401 44115
25403 44037
25405 43966
25407 43948
25409 43962
25411 44025
25413 44054
25415 44060
25417 43973
25419 43903
25421 43806
25423 43804
25425 43860
25427 43912
25429 43998
25432 44004
25434 43926
25436 43839
25438 43701
25440 43610
25442 43595
25444 43641
25446 43704
25448 43750
25450 43738
25452 43704
25454 43613
25456 43577
25458 43571
25460 43624
25462 43670
25464 43707
25466 43702
25468 43624
25470 43554
25472 43454
25474 43405
25476 43380
25478 43359
25480 43281
25482 43171
25484 43049
25486 42938
25488 42894
25490 43005
25492 43206
25494 43470
25496 43757
25498 44053
25500 44355
25502 44659
25504 44997
25506 45424
25508 45956
25510 46516
25512 47047
25514 47473
25517 47647
25519 47683
25521 47498
25523 47276
25525 46925
25527 46535
25529 46087
25531 45627
25533 45131
25535 44652
25537 44215
25539 43907
25541 43747
25543 43757
25545 43823
25547 43945
25549 43982
25551 43969
25553 43863
25555 43778
25557 43705
25559 43683
25561 43673
25563 43658
25565 43599
25567 43508
25569 43420
25571 43326
25573 43323
25575 43417
25577 43507
25579 43577
25582 43626
25584 43561
25586 43505
25588 43381
25590 43349
25592 43327
25594 43370
25596 43424
25598 43465
25600 43454
25602 43418
25604 43331
25606 43302
25608 43339
25610 43384
25612 43480
25614 43518
25616 43526
25618 43464
25620 43356
25622 43295
25624 43268
25626 43301
25628 43364
25630 43426
25632 43442
25634 43473
25636 43420
25638 43418
25640 43455
25642 43514
25644 43613
25647 43652
25649 43660
25651 43573
25653 43514
25655 43440
25657 43434
25659 43524
25661 43613
25663 43679
25665 43719
25667 43679
25669 43576
25671 43513
25673 43471
25675 43510
25677 43573
25679 43652
25681 43719
25683 43738
25685 43683
25687 43602
25689 43576
25691 43589
25693 43649
25695 43752
25697 43835
25699 43860
25701 43860
25703 43836
25705 43819
25707 43857
25709 43919
25712 43972
25714 44029
25716 44006
25718 43994
25720 43926
25722 43932
25724 43953
25726 44045
25728 44166
25730 44247
25732 44290
25734 44272
25736 44213
29917 43738
29919 43685
29921 43561
29923 43482
29925 43446
29927 43399
29929 43358
29931 43267
29933 43140
29935 43041
29937 42993
29939 43063
29941 43262
29943 43508
29945 43766
29947 44090
29949 44389
29951 44687
29953 45020
29955 45459
29957 45986
29959 46539
29961 47102
29963 47468
29965 47688
29967 47658
29969 47486
29971 47195
29973 46840
29975 46404
29977 45949
29979 45534
29981 45051
29983 44636
29985 44227
29987 43965
29989 43833
29991 43864
29993 43944
29995 44057
29997 44079
30000 44025
30002 43894
30004 43735
30006 43627
30008 43574
30010 43607
30012 43601
30014 43641
30016 43614
30018 43536
30020 43445
30022 43380
30024 43371
30026 43371
30028 43464
30030 43485
30032 43520
30034 43501
30036 43445
30038 43423
30040 43427
30042 43511
30044 43573
30046 43621
30048 43582
30050 43514
30052 43451
30054 43395
30056 43383
30058 43424
30060 43485
30062 43552
30064 43574
30067 43508
30069 43448
30071 43398
30073 43390
30075 43445
30077 43517
30079 43563
30081 43580
30083 43527
30085 43455
30087 43379
30089 43383
30091 43420
30093 43563
30095 43645
30097 43701
30099 43667
30101 43588
30103 43493
30105 43402
30107 43399
30109 43492
30111 43563
30113 43629
30115 43652
30117 43623
30119 43571
30121 43593
30123 43630
30125 43685
30127 43786
30129 43757
30132 43779
30134 43723
30136 43654
30138 43624
30140 43636
30142 43697
30144 43776
30146 43847
30148 43873
30150 43842
30152 43832
30154 43779
30156 43817
30158 43888
30160 43975
30162 44076
30164 44110
30166 44090
30168 44028
30170 43965
30172 43969
30174 43992
30176 44081
30178 44187
30180 44222
30182 44275
30184 44232
30186 44221
30188 44235
30190 44302
30192 44412
30195 44499
30197 44574
30199 44584
30201 44573
30203 44520
30205 44520
30207 44559
30209 44626
30211 44724
30213 44786
30215 44780
30217 44751
30219 44668
30221 44611
30223 44608
30225 44676
30227 44734
30229 44790
30231 44779
30233 44704
30235 44626
30237 44521
30239 44495
30241 44512
30243 44543
30245 44568
30247 44514
30249 44437
30251 44287
30351 43539
30353 43418
30355 43364
30357 43345
30359 43393
30361 43486
30363 43558
30365 43561
30367 43517
30369 43445
30371 43390
30373 43454
30375 43474
30377 43555
30379 43596
30381 43599
30383 43535
30385 43430
30387 43415
30390 43427
30392 43508
30394 43629
30396 43683
30398 43674
30400 43601
30402 43504
30404 43424
30406 43374
30408 43448
30410 43499
30412 43577
30414 43577
30416 43551
30418 43473
30420 43474
30422 43442
30424 43542
30426 43626
30428 43701
30430 43745
30432 43710
30434 43638
30436 43543
30438 43487
30440 43507
30442 43554
30444 43632
30446 43677
30448 43663
30450 43619
30452 43527
30454 43496
30457 43505
30459 43561
30461 43627
30463 43692
30465 43698
30467 43629
30469 43573
30471 43530
30473 43517
30475 43583
30477 43635
30479 43663
30481 43658
30483 43567
30485 43448
30487 43381
30489 43368
30491 43421
30493 43549
30495 43658
30497 43741
30499 43723
30501 43698
30503 43632
30505 43596
30507 43595
30509 43611
30511 43661
30513 43670
30515 43663
30517 43605
30520 43535
30522 43536
30524 43557
30526 43592
30528 43686
30530 43697
30532 43658
30534 43599
30536 43480
30538 43443
30540 43418
30542 43515
30544 43567
30546 43605
30548 43633
30550 43598
30552 43567
30554 43492
30556 43520
30558 43583
30560 43683
30562 43770
30564 43797
30566 43741
30568 43641
30570 43549
30572 43513
30574 43557
30576 43627
30578 43699
30580 43732
30582 43708
30584 43630
30587 43564
30589 43548
30591 43568
30593 43672
30595 43699
30597 43745
30599 43692
30601 43596
30603 43517
30605 43468
30607 43486
30609 43560
30611 43651
30613 43713
30615 43713
30617 43683
30619 43630
30621 43561
30623 43566
30625 43591
30627 43661
30629 43692
30631 43698
30633 43617
30635 43570
30637 43510
30639 43518
30641 43568
30643 43680
30645 43726
30647 43760
30650 43701
30652 43630
30654 43579
30656 43549
30658 43592
30660 43660
30662 43710
30664 43750
30666 43701
30668 43638
30670 43592
30672 43529
30674 43573
30676 43586
30678 43658
30680 43699
30682 43694
30684 43652
30686 43567
30688 43577
30690 43554
30692 43648
30694 43726
30696 43772
30698 43758
30700 43714
30702 43682
30704 43641
30706 43651
30708 43726
30710 43801
30712 43869
30714 43870
30717 43800
30719 43763
30721 43723
30723 43739
30725 43854
30727 43978
30729 44062
30731 44109
30733 44078
30735 43985
30737 43900
30739 43841
30741 43850
30743 43881
30745 43942
30747 43919
30749 43904
30751 43841
30753 43745
30755 43754
30757 43760
30759 43829
30761 43913
30763 43942
30765 43925
30767 43847
30769 43764
30771 43691
30773 43658
30775 43698
30777 43705
30779 43741
30782 43689
30784 43626
30786 43530
30788 43473
30790 43471
30792 43508
30794 43592
30796 43666
30798 43672
30800 43638
30802 43566
30804 43507
30806 43501
30808 43530
30810 43540
30812 43496
30814 43370
30816 43164
30818 42985
30820 42871
30822 42877
30824 42983
30826 43230
30828 43483
30830 43741
30832 44016
30834 44308
30836 44658
30838 45089
30840 45615
30842 46173
30844 46749
30847 47183
30849 47496
30851 47544
30853 47460
30855 47276
30857 47039
30859 46750
30861 46358
30863 45920
30865 45491
30867 44997
30869 44553
30871 44202
30873 43969
30875 43901
30877 43916
30879 44010
30881 44009
30883 43972
30885 43876
30887 43744
30889 43672
30891 43646
30893 43661
30895 43648
30897 43633
30899 43552
30901 43477
30903 43407
30905 43409
30907 43473
30909 43551
30912 43630
30914 43633
30916 43555
30918 43470
30920 43346
30922 43309
30924 43305
30926 43358
30928 43395
30930 43457
30932 43424
30934 43395
30936 43374
30938 43376
30940 43460
30942 43558
30944 43629
30946 43680
30948 43619
30950 43511
30952 43408
30954 43318
30956 43330
30958 43387
30960 43465
30962 43545
30964 43568
30966 43540
30968 43465
30970 43417
30972 43407
30974 43474
30977 43540
30979 43619
30981 43630
30983 43580
30985 43501
30987 43429
30989 43423
30991 43485
30993 43545
30995 43629
30997 43655
30999 43627
31001 43583
31003 43487
31005 43502
31007 43524
31009 43588
31011 43701
31013 43741
31015 43741
31017 43729
31019 43649
31021 43657
31023 43711
31985 44503
31987 44459
31989 44459
31991 44493
31993 44577
31995 44683
31997 44729
31999 44708
32001 44648
32003 44559
32005 44522
32007 44525
32009 44587
32011 44696
32013 44757
32015 44777
32017 44734
32019 44631
32021 44542
32023 44490
32025 44496
32027 44508
32029 44518
32031 44464
32033 44386
32035 44256
32037 44149
32039 44054
32041 44040
32043 44012
32045 44043
32047 43965
32049 43910
32051 43760
32053 43657
32055 43599
32057 43589
32059 43632
32061 43651
32063 43648
32066 43557
32068 43458
32070 43355
32072 43314
32074 43327
32076 43401
32078 43527
32080 43571
32082 43545
32084 43513
32086 43433
32088 43374
32090 43371
32092 43411
32094 43464
32096 43510
32098 43490
32100 43449
32102 43408
32104 43371
32106 43380
32108 43439
32110 43482
32112 43535
32114 43517
32116 43473
32118 43396
32120 43327
32122 43337
32124 43374
32126 43445
32128 43524
32130 43496
32132 43442
32134 43340
32136 43271
32138 43225
32140 43299
32142 43398
32145 43532
32147 43592
32149 43599
32151 43529
32153 43432
32155 43389
32157 43368
32159 43415
32161 43476
32163 43496
32165 43499
32167 43471
32169 43395
32171 43373
32173 43418
32175 43461
32177 43539
32179 43585
32181 43545
32183 43493
32185 43399
32187 43328
32189 43337
32191 43401
32193 43490
32195 43564
32197 43593
32199 43564
32201 43508
32203 43409
32205 43404
32207 43430
32209 43493
32212 43532
32214 43574
32216 43545
32218 43517
32220 43465
32222 43474
32224 43496
32226 43574
32228 43630
32230 43621
32232 43585
32234 43486
32236 43440
32238 43417
32240 43445
32242 43545
32244 43645
32246 43713
32248 43683
32250 43619
32252 43554
32254 43483
32256 43489
32258 43533
32260 43582
32262 43610
32264 43604
32266 43529
32268 43482
32270 43415
32272 43411
32275 43448
32277 43526
32279 43589
32281 43589
32283 43586
32285 43557
32287 43508
32289 43552
32291 43586
32293 43661
32295 43705
32297 43704
32299 43638
32301 43536
32303 43412
32305 43404
32307 43408
32309 43495
32311 43621
32313 43664
32315 43655
32317 43617
32319 43571
32321 43526
32323 43532
32325 43591
32327 43639
32329 43691
32331 43658
32333 43607
32335 43549
32337 43523
32340 43536
32342 43610
32344 43702
32346 43727
32348 43763
32350 43682
32352 43610
32354 43542
32356 43499
32358 43483
32360 43524
32362 43538
32364 43551
32366 43508
32368 43480
32370 43476
32372 43511
32374 43598
32376 43685
32378 43742
32380 43741
32382 43677
32384 43607
32386 43515
32388 43508
32390 43529
32392 43607
32394 43699
32396 43726
32398 43713
32400 43651
32402 43551
32405 43546
32407 43551
32409 43627
32411 43676
32413 43702
32415 43705
32417 43595
32419 43570
32421 43513
32423 43560
32425 43610
32427 43699
32429 43732
32431 43738
32433 43680
32435 43624
32437 43576
32439 43568
32441 43604
32443 43669
32445 43713
32447 43704
32449 43626
32451 43548
32453 43455
32455 43467
32457 43498
32459 43641
32461 43701
32463 43786
32465 43785
32467 43748
32469 43660
32472 43614
32474 43592
32476 43624
32478 43645
32480 43644
32482 43614
32484 43574
32486 43521
32488 43567
32490 43602
32492 43708
32494 43811
32496 43881
32498 43910
32500 43875
32502 43845
32504 43808
32506 43810
32508 43889
32510 43947
32512 44006
32514 43988
32516 43926
32518 43829
32520 43773
32522 43760
32524 43797
32526 43889
32528 43938
32530 43975
32532 43935
32534 43859
32537 43769
32539 43726
32541 43664
32543 43685
32545 43729
32547 43716
32549 43685
32551 43636
32553 43580
32555 43551
32557 43601
32559 43621
32561 43705
32563 43699
32565 43679
32567 43574
32569 43505
32571 43457
32573 43489
32575 43551
32577 43633
32579 43710
32581 43689
32583 43630
32585 43511
32587 43380
32589 43258
32591 43146
32593 43072
32595 42987
32597 42932
32599 42953
32602 43013
32604 43175
32606 43473
32608 43897
32610 44343
32612 44846
32614 45291
32616 45719
32618 46085
32620 46469
32622 46822
32624 47143
32626 47365
32628 47424
32630 47324
32632 47102
32634 46731
32636 46224
32638 45736
32640 45298
32642 44964
32644 44686
32646 44418
32648 44196
32650 43954
32652 43807
32654 43691
32656 43688
32658 43723
32660 43775
32662 43780
32664 43735
32667 43639
32669 43551
32671 43517
32673 43545
32675 43577
32677 43673
32679 43642
32681 43593
32683 43502
32685 43392
32687 43328
32689 43323
32691 43370
32693 43465
32695 43540
32697 43564
32699 43518
32701 43437
32703 43314
32705 43298
32707 43309
32709 43377
32711 43460
32713 43457
32715 43486
32717 43405
32719 43374
32721 43383
32723 43398
32725 43486
32727 43538
32730 43568
32732 43529
32734 43498
32736 43383
32738 43384
32740 43384
32742 43468
32744 43538
32746 43595
32748 43616
32750 43564
32752 43477
32754 43452
32756 43424
32758 43489
32760 43555
32762 43614
32764 43627
32766 43614
32768 43536
32770 43508
32772 43496
32774 43540
32776 43621
32778 43645
32780 43633
32782 43596
32784 43521
32786 43489
32788 43524
32790 43567
32792 43683
32795 43780
32797 43792
32799 43798
32801 43680
32803 43629
32805 43589
32807 43626
32809 43705
32811 43800
32813 43842
32815 43860
32817 43822
32819 43795
32821 43772
32823 43841
32825 43904
32827 43992
32829 44075
32831 44050
32833 44029
32835 43990
32837 43966
32839 44038
32841 44124
32843 44253
32845 44337
32847 44368
32849 44356
32851 44308
32853 44299
32855 44316
32857 44405
32859 44511
32862 44565
32864 44603
32866 44583
32868 44512
32870 44497
32872 44497
32874 44584
32876 44668
32878 44749
32880 44793
32882 44776
32884 44692
32886 44631
32888 44584
32890 44621
32892 44654
32894 44695
32896 44674
32898 44633
32900 44497
32902 44386
32904 44310
32906 44296
32908 44321
32910 44381
32912 44387
32914 44312
32916 44199
32918 44063
32920 43919
32922 43903
32924 43895
32927 43947
32929 43957
32931 43903
32933 43829
32935 43699
32937 43620
32939 43598
32941 43616
32943 43663
32945 43682
32947 43663
32949 43607
32951 43508
32953 43462
32955 43423
32957 43485
32959 43548
32961 43610
32963 43651
32965 43608
32967 43517
32969 43457
32971 43414
32973 43383
32975 43467
32977 43498
32979 43554
32981 43521
32983 43499
32985 43412
32987 43399
32990 43418
32992 43482
32994 43554
33024 43499
33026 43557
33028 43651
33030 43661
33032 43591
33034 43485
33036 43415
33038 43343
33040 43395
33042 43443
33044 43520
33046 43588
33048 43558
33050 43501
33052 43418
33055 43430
33057 43464
33059 43538
33061 43608
33063 43660
33065 43645
33067 43593
33069 43508
33071 43454
33073 43471
33075 43487
33077 43564
33079 43632
33081 43608
33083 43591
33085 43545
33087 43507
33089 43546
33091 43601
33093 43673
33095 43726
33097 43704
33099 43666
33101 43557
33103 43502
33105 43501
33107 43532
33109 43586
33111 43664
33113 43658
33115 43582
33117 43496
33120 43393
33122 43365
33124 43384
33126 43477
33128 43567
33130 43655
33132 43638
33134 43570
33136 43513
33138 43449
33140 43496
33142 43536
33144 43614
33146 43654
33148 43664
33150 43619
33152 43583
33154 43529
33156 43548
33158 43598
33160 43652
33162 43694
33164 43676
33166 43614
33168 43549
33170 43457
33172 43468
33174 43523
33176 43551
33178 43636
33180 43648
33182 43616
33185 43549
33187 43524
33189 43507
33191 43571
33193 43613
33195 43667
33197 43657
33199 43610
33201 43539
33203 43461
33205 43439
33207 43521
33209 43579
33211 43652
33213 43682
33215 43616
33217 43549
33219 43501
33221 43462
33223 43535
33225 43619
33227 43695
33229 43755
33231 43754
33233 43677
33235 43611
33237 43524
33239 43543
33241 43610
33243 43688
33245 43758
33247 43751
33250 43729
33252 43666
33254 43623
33256 43626
33258 43660
33260 43741
33262 43769
33264 43747
33266 43701
33268 43580
33270 43520
33272 43495
33274 43567
33276 43605
33278 43680
33280 43701
33282 43669
33284 43635
33286 43571
33288 43592
33290 43598
33292 43691
33294 43754
33296 43788
33298 43769
33300 43682
33302 43632
33304 43591
33306 43605
33308 43676
33310 43751
33312 43782
33315 43770
33317 43701
33319 43630
33321 43604
33323 43599
33325 43641
33327 43704
33329 43766
33331 43786
33333 43782
33335 43738
33337 43761
33339 43738
33341 43810
33343 43867
33345 43885
33347 43859
33349 43772
33351 43726
33353 43655
33355 43710
33357 43800
33359 43916
33446 43568
33448 43480
33450 43327
33452 43162
33454 43005
33456 42963
33458 43033
33460 43196
33462 43442
33464 43654
33466 43922
33468 44151
33470 44416
33472 44770
33474 45184
33476 45709
33478 46189
33480 46638
33482 46987
33484 47149
33486 47239
33488 47140
33490 47014
33492 46838
33494 46585
33496 46186
33498 45734
33500 45245
33502 44813
33504 44458
33506 44221
33508 44057
33510 44004
33512 43981
33514 43901
33516 43847
33518 43772
33520 43694
33522 43646
33524 43688
33526 43704
33528 43716
33530 43698
33532 43624
33534 43533
33536 43436
33538 43402
33540 43433
33542 43465
33544 43535
33546 43571
33548 43535
33550 43452
33552 43389
33554 43324
33556 43352
33558 43393
33560 43470
33562 43515
33564 43486
33566 43451
33568 43345
33570 43312
33572 43287
33575 43376
33577 43451
33579 43499
33581 43514
33583 43470
33585 43433
33587 43386
33589 43417
33591 43454
33593 43517
33595 43570
33597 43536
33599 43485
33601 43402
33603 43351
33605 43306
33607 43398
33609 43460
33611 43551
33613 43586
33615 43573
33617 43530
33619 43480
33621 43471
33623 43508
33625 43542
33627 43644
33629 43641
33631 43654
33633 43579
33635 43580
33637 43536
33640 43589
33642 43646
33644 43767
33646 43763
33648 43761
33650 43683
33652 43601
33654 43561
33656 43573
33658 43629
33660 43695
33662 43776
33664 43820
33666 43769
33668 43747
33670 43697
33672 43726
33674 43757
33676 43866
33678 43900
33680 43950
33682 43929
33684 43912
33686 43903
33688 43920
33690 44007
33692 44100
33694 44175
33696 44219
33698 44187
33700 44132
33702 44082
33705 44060
33707 44128
33709 44222
33711 44312
33713 44393
33715 44422
33717 44446
33719 44424
33721 44418
33723 44471
33725 44545
33727 44605
33729 44628
33731 44624
33733 44549
33735 44478
33737 44472
33739 44530
33741 44631
33743 44762
33745 44861
33747 44889
33749 44838
33751 44737
33753 44634
33755 44592
33757 44567
33759 44603
33761 44609
33763 44601
33765 44520
33767 44400
33770 44283
33772 44184
33774 44175
33776 44119
33778 44129
33780 44060
33796 43894
33798 43813
33800 43672
33802 43533
33804 43470
33806 43477
33808 43551
33810 43661
33812 43679
33814 43710
33816 43589
33818 43496
33820 43439
33822 43432
33824 43468
33826 43540
33828 43601
33830 43591
33832 43482
33835 43424
33837 43324
33839 43337
33841 43380
33843 43476
33845 43546
33847 43566
33849 43517
33851 43443
33853 43381
33855 43368
33857 43412
33859 43490
33861 43530
33863 43558
33865 43532
33867 43467
33869 43396
33871 43389
33873 43407
33875 43479
33877 43573
33879 43599
33881 43623
33883 43564
33885 43496
33887 43440
33889 43461
33891 43485
33893 43554
33895 43563
33897 43539
33900 43502
33902 43411
33904 43349
33906 43370
33908 43443
33910 43533
33912 43582
33914 43617
33916 43554
33918 43486
33920 43434
33922 43421
33924 43467
33926 43557
33928 43617
33930 43620
33932 43611
33934 43533
33936 43485
33938 43482
33940 43504
33942 43529
33944 43608
33946 43588
33948 43571
33950 43523
33952 43479
33954 43480
33956 43508
33958 43601
33960 43674
33962 43692
33965 43680
33967 43614
33969 43527
33971 43477
33973 43507
33975 43552
33977 43633
33979 43645
33981 43645
33983 43558
33985 43493
33987 43427
33989 43455
33991 43474
33993 43579
33995 43635
33997 43642
33999 43598
34001 43524
34003 43452
34005 43433
34007 43446
34009 43535
34011 43589
34013 43613
34015 43604
34017 43552
34019 43498
34021 43507
34023 43574
34025 43664
34027 43726
34030 43738
34032 43677
34034 43585
34036 43487
34038 43458
34040 43443
34042 43492
34044 43588
34046 43642
34048 43683
34050 43663
34052 43639
34054 43607
34056 43646
34058 43677
34060 43747
34062 43723
34064 43682
34066 43592
34068 43487
34070 43430
34072 43429
34074 43486
34076 43555
34078 43635
34080 43676
34082 43683
34084 43664
34086 43651
34088 43674
34090 43704
34092 43761
34095 43797
34097 43738
34099 43672
34101 43538
34103 43461
34105 43433
34107 43470
34109 43564
34111 43633
34113 43686
34115 43685
34117 43605
34119 43546
34121 43502
34123 43538
34125 43573
34127 43652
34129 43686
34131 43667
34133 43639
34135 43598
34137 43540
34139 43585
34141 43670
34143 43733
34145 43785
34147 43727
34149 43667
34151 43595
34153 43574
34155 43591
34157 43655
34160 43766
34162 43807
34164 43819
34166 43764
34168 43639
34170 43566
34172 43520
34174 43530
34176 43592
34178 43648
34180 43673
34182 43673
34184 43608
34186 43580
34188 43545
34190 43611
34192 43694
34194 43783
34196 43811
34198 43752
34200 43704
34202 43633
34204 43629
34206 43679
34208 43806
34210 43941
34212 44028
34214 44041
34216 44004
34218 43912
34220 43881
34222 43845
34225 43925
34227 43966
34229 44007
34231 43988
34233 43895
34235 43825
34237 43788
34239 43785
34241 43854
34243 43923
34245 43950
34247 43929
34249 43854
34251 43776
34253 43642
34255 43583
34257 43538
34259 43567
34261 43588
34263 43614
34265 43577
34267 43524
34269 43490
34271 43536
34273 43582
34275 43670
34277 43739
34279 43773
34281 43694
34283 43617
34285 43471
34287 43433
34290 43417
34292 43460
34294 43496
34296 43502
34298 43405
34300 43270
34302 43096
34304 42988
34306 42980
34308 43041
34310 43174
34312 43365
34314 43533
34316 43716
34318 43929
34320 44244
34322 44652
34324 45110
34326 45658
34328 46195
34330 46668
34332 47005
34334 47243
34336 47340
34338 47314
34340 47245
34342 47081
34344 46819
34346 46386
34348 45861
34350 45287
34352 44826
34355 44444
34357 44204
34359 44079
34361 44010
34363 43990
34365 43919
34367 43838
34369 43772
34371 43686
34373 43674
34375 43672
34377 43720
34379 43733
34381 43663
34383 43568
34385 43485
34387 43379
34389 43365
34391 43418
34393 43464
34395 43496
34397 43487
34399 43449
34401 43367
34403 43321
34405 43336
34407 43362
34409 43451
34411 43515
34413 43502
34415 43449
34417 43356
34420 43277
34422 43273
34424 43315
34426 43374
34428 43446
34430 43455
34432 43436
34434 43408
34436 43384
34438 43355
34440 43395
34442 43454
34444 43501
34446 43517
34448 43483
34450 43384
34452 43355
34454 43340
34456 43383
34458 43483
34460 43564
34462 43604
34464 43579
34466 43552
34468 43465
34539 43891
34541 43935
34543 44056
34545 44134
34547 44181
34549 44177
34551 44138
34553 44093
34555 44056
34557 44098
34559 44178
34561 44269
34563 44350
34565 44408
34567 44439
34569 44427
34571 44422
34573 44446
34575 44524
34577 44599
34579 44664
34581 44704
34583 44651
34585 44626
34587 44531
34589 44555
34591 44581
34593 44648
34595 44721
34597 44732
34599 44707
34601 44634
34603 44578
34605 44574
34607 44562
34609 44590
34611 44620
34613 44584
34615 44499
34617 44366
34619 44240
34621 44166
34623 44153
34625 44178
34627 44219
34629 44182
34631 44116
34633 43997
34635 43869
34637 43755
34639 43723
34641 43770
34643 43789
34645 43842
34647 43836
34649 43789
34651 43683
34653 43616
34655 43533
34657 43530
34659 43535
34661 43548
34663 43532
34665 43527
34667 43446
34669 43465
34671 43451
34673 43482
34675 43554
34677 43589
34680 43585
34682 43535
34684 43423
34686 43340
34688 43328
34690 43365
34692 43443
34694 43521
34696 43530
34698 43510
34700 43420
34702 43337
34704 43295
34706 43327
34708 43412
34710 43479
34712 43536
34714 43504
34716 43439
34718 43362
34720 43298
34722 43333
34724 43401
34726 43493
34728 43552
34730 43570
34732 43496
34734 43448
34736 43365
34738 43396
34740 43429
34742 43517
34745 43586
34747 43573
34749 43508
34751 43396
34753 43317
34755 43273
34757 43323
34759 43417
34761 43502
34763 43561
34765 43567
34767 43508
34769 43452
34771 43454
34773 43449
34775 43520
34777 43583
34779 43589
34781 43591
34783 43502
34785 43486
34787 43470
34789 43505
34791 43574
34793 43639
34795 43666
34797 43619
34799 43580
34801 43462
34803 43446
34805 43467
34807 43502
34810 43620
34812 43682
34814 43657
34816 43624
34818 43542
34820 43457
34822 43460
34824 43505
34826 43596
34828 43639
34830 43669
34832 43649
34834 43568
34836 43539
34838 43545
34840 43577
34842 43649
34844 43683
34846 43676
34848 43611
34850 43540
34852 43432
34854 43448
34856 43476
34858 43570
34860 43617
34862 43619
34864 43574
34866 43455
34868 43383
34870 43331
34872 43355
34875 43442
34877 43536
34879 43588
34881 43602
34883 43601
34885 43551
34887 43555
34889 43598
34891 43673
34893 43738
34895 43808
34897 43775
34899 43707
34901 43605
34903 43545
34905 43546
34907 43588
34909 43673
34911 43726
34913 43689
34915 43646
34917 43570
34919 43504
34921 43471
34923 43539
34925 43591
34927 43667
34929 43691
34931 43666
34933 43599
34935 43551
34937 43504
34940 43571
34942 43614
34944 43689
34946 43674
34948 43657
34950 43591
34952 43508
34954 43496
34956 43511
34958 43596
34960 43661
34962 43714
34964 43666
34966 43604
34968 43524
34970 43468
34972 43501
34974 43583
34976 43683
34978 43755
34980 43720
34982 43723
34984 43589
34986 43535
34988 43524
34990 43530
34992 43604
34994 43677
34996 43691
34998 43658
35000 43602
35002 43554
35005 43527
35007 43536
35009 43629
35011 43677
35013 43680
35015 43652
35017 43605
35019 43527
35021 43546
35023 43568
35025 43676
35027 43773
35029 43831
35031 43825
35033 43766
35035 43719
35037 43682
35039 43729
35041 43842
35043 43953
35045 44044
35047 44051
35049 44022
35051 43909
35053 43822
35055 43806
35057 43872
35059 43900
35061 43988
35063 43998
35065 43982
35067 43907
35070 43828
35072 43804
35074 43819
35076 43884
35078 43912
35080 43914
35082 43845
35084 43766
35086 43676
35088 43642
35090 43655
35092 43710
35094 43767
35096 43791
35098 43755
35100 43674
35102 43601
35104 43563
35106 43582
35108 43636
35110 43691
35112 43702
35114 43648
35116 43552
35118 43490
35120 43467
35122 43504
35124 43568
35126 43669
35128 43663
35130 43619
35132 43421
35135 43233
35137 43005
35139 42907
35141 42879
35143 42985
35145 43111
35147 43268
35149 43427
35151 43558
35153 43779
35155 44065
35157 44477
35159 44960
35161 45472
35163 45983
35165 46479
35167 46874
35169 47196
35171 47414
35173 47523
35175 47520
35177 47446
35179 47174
35181 46747
35183 46193
35185 45663
35187 45141
35189 44718
35191 44389
35193 44140
35195 43985
35197 43869
35200 43778
35202 43764
35204 43694
35206 43729
35208 43760
35210 43801
35296 43579
35298 43548
35300 43476
35302 43387
35304 43309
35306 43349
35308 43404
35310 43461
35312 43548
35314 43540
35316 43492
35318 43461
35320 43409
35322 43434
35324 43552
35326 43642
35328 43747
35330 43779
35332 43752
35334 43664
35336 43616
35338 43573
35340 43613
35343 43711
35344 43816
35347 43914
35349 43937
35351 43882
35353 43810
35355 43752
35357 43729
35359 43786
35361 43817
35363 43881
35365 43863
35367 43819
35369 43813
35371 43779
35373 43878
35375 43938
35377 44048
35379 44093
35381 44103
35383 44081
35385 44023
35387 44006
35389 44066
35391 44138
35393 44278
35395 44397
35397 44452
35399 44471
35401 44440
35403 44409
35405 44414
35407 44469
35409 44527
35411 44612
35413 44624
35415 44598
35417 44542
35419 44506
35421 44518
35423 44590
35425 44717
35427 44786
35429 44843
35431 44805
35433 44729
35435 44614
35437 44533
35439 44522
35441 44518
35443 44559
35445 44571
35447 44517
35449 44418
35451 44319
35453 44240
35455 44216
35457 44225
35460 44250
35462 44257
35464 44197
35466 44078
35468 43922
35470 43836
35472 43755
35474 43760
35476 43820
35478 43869
35480 43842
35482 43745
35484 43638
35486 43533
35488 43465
35490 43489
35492 43521
35494 43626
35496 43601
35498 43568
35500 43470
35502 43381
35504 43343
35506 43359
35508 43426
35510 43487
35512 43542
35514 43501
35516 43452
35518 43387
35520 43358
35522 43376
35525 43379
35527 43474
35529 43458
35531 43449
35533 43392
35535 43368
35537 43337
35539 43362
35541 43442
35543 43520
35545 43520
35547 43513
35549 43434
35551 43336
35553 43270
35555 43259
35557 43355
35559 43448
35561 43576
35563 43624
35565 43592
35567 43532
35569 43455
35571 43426
35573 43471
35575 43515
35577 43576
35579 43626
35581 43555
35583 43493
35585 43421
35587 43387
35590 43376
35592 43432
35594 43479
35596 43504
35598 43487
35600 43437
35602 43361
35604 43333
35606 43354
35608 43418
35610 43527
35612 43574
35614 43602
35616 43560
35618 43479
35620 43432
35622 43398
35624 43448
35626 43468
35628 43527
35630 43526
35632 43502
35634 43489
35636 43510
35638 43558
35640 43632
35642 43736
35644 43748
35646 43733
35648 43661
35650 43545
35652 43496
35655 43496
35657 43520
35659 43633
35661 43723
35663 43782
35665 43736
35667 43649
35669 43539
35671 43483
35673 43493
35675 43546
35677 43636
35679 43685
35681 43648
35683 43585
35685 43492
35687 43440
35689 43460
35691 43526
35693 43586
35695 43610
35697 43632
35699 43543
35701 43504
35703 43440
35705 43457
35707 43526
35709 43567
35711 43611
35713 43605
35715 43576
35717 43518
35720 43490
35722 43558
35724 43655
35726 43708
35728 43780
35730 43754
35732 43682
35734 43576
35736 43487
35738 43480
35740 43529
35742 43633
35744 43707
35746 43657
35748 43605
35750 43499
35752 43408
35754 43380
35756 43439
35758 43577
35760 43680
35762 43751
35764 43754
35766 43691
35768 43595
35770 43552
35772 43549
35774 43604
35776 43644
35778 43695
35780 43670
35782 43598
35785 43526
35787 43486
35789 43510
35791 43574
35793 43655
35795 43714
35797 43704
35799 43630
35801 43535
35803 43458
35805 43464
35807 43527
35809 43636
35811 43766
35813 43798
35815 43769
35817 43688
35819 43589
35821 43535
35823 43530
35825 43540
35827 43592
35829 43583
35831 43551
35833 43499
35835 43445
35837 43437
35839 43489
35841 43555
35843 43673
35845 43708
35847 43716
35850 43679
35852 43583
35854 43563
35856 43576
35858 43666
35860 43711
35862 43785
35864 43752
35866 43711
35868 43610
35870 43580
35872 43602
35874 43683
35876 43769
35878 43847
35880 43866
35882 43822
35884 43804
35886 43745
35888 43752
35890 43825
35892 43879
35894 43947
35896 43966
35898 43966
35900 43885
35902 43869
35904 43850
35906 43892
35908 43969
35910 44020
35912 44018
35915 43947
35917 43860
35919 43739
35921 43704
35923 43739
35925 43808
35927 43859
35929 43889
35931 43866
35933 43775
35935 43676
35937 43613
35939 43596
35941 43626
35943 43661
35945 43691
35947 43627
35949 43570
35951 43485
35953 43420
35955 43451
35957 43510
35959 43629
35961 43688
35963 43686
35965 43604
35967 43489
36043 43816
36045 43886
36047 43914
36049 43873
36051 43831
36053 43705
36055 43677
36057 43654
36059 43691
36061 43701
36063 43666
36065 43611
36067 43517
36069 43417
36071 43386
36073 43402
36075 43420
36077 43470
36079 43483
36081 43412
36083 43340
36085 43259
36087 43248
36089 43246
36091 43339
36093 43392
36095 43426
36097 43417
36099 43396
36101 43315
36103 43305
36105 43321
36107 43374
36110 43418
36112 43495
36114 43493
36116 43442
36118 43379
36120 43346
36122 43354
36124 43402
36126 43461
36128 43515
36130 43486
36132 43434
36134 43345
36136 43301
36138 43326
36140 43430
36142 43524
36144 43629
36146 43635
36148 43613
36150 43518
36152 43445
36154 43414
36156 43442
36158 43480
36160 43560
36162 43568
36164 43548
36166 43499
36168 43427
36170 43396
36172 43424
36175 43474
36177 43570
36179 43601
36181 43644
36183 43639
36185 43636
36187 43689
36189 43730
36191 43814
36193 43888
36195 43903
36197 43863
36199 43786
36201 43701
36203 43642
36205 43676
36207 43722
36209 43884
36211 43957
36213 43991
36215 43957
36217 43891
36219 43813
36221 43813
36223 43888
36225 43962
36227 44069
36229 44146
36231 44178
36233 44178
36235 44134
36237 44151
36240 44150
36242 44232
36244 44294
36246 44308
36248 44327
36250 44303
36252 44333
36254 44387
36256 44543
36258 44679
36260 44790
36262 44852
36264 44789
36266 44746
36268 44664
36270 44618
36272 44615
36274 44665
36276 44720
36278 44760
36280 44752
36282 44680
36284 44589
36286 44493
36288 44452
36290 44443
36292 44443
36294 44449
36296 44375
36298 44293
36300 44151
36302 44072
36305 43985
36307 43991
36309 43998
36311 44022
36313 43966
36315 43907
36317 43751
36319 43638
36321 43555
36323 43533
36325 43557
36327 43611
36329 43641
36331 43601
36333 43570
36335 43533
36337 43501
36339 43526
36341 43555
36343 43583
36345 43582
36347 43521
36349 43423
36351 43346
36353 43305
36355 43309
36357 43371
36359 43442
36361 43473
36363 43471
36365 43408
36367 43290
36370 43252
36372 43258
36374 43314
36376 43424
36378 43507
36380 43539
36382 43518
36384 43443
36386 43352
36388 43311
36390 43308
36392 43381
36394 43429
36396 43474
36398 43487
36400 43457
36402 43448
36404 43460
36406 43477
36408 43542
36410 43585
36412 43576
36414 43518
36416 43451
36418 43349
36420 43311
36422 43358
36424 43415
36426 43505
36428 43566
36430 43549
36432 43468
36435 43381
36437 43339
36439 43301
36441 43379
36443 43417
36445 43501
36447 43529
36449 43492
36451 43458
36453 43424
36455 43411
36457 43482
36459 43542
36461 43576
36463 43595
36465 43532
36467 43468
36469 43392
36471 43379
36473 43409
36475 43490
36477 43589
36479 43629
36481 43621
36483 43530
36485 43451
36487 43461
36489 43460
36491 43536
36493 43636
36495 43658
36497 43642
36500 43554
36502 43498
36504 43462
36506 43487
36508 43536
36510 43617
36512 43642
36514 43645
36516 43607
36518 43535
36520 43480
36522 43464
36524 43508
36526 43532
36528 43585
36530 43545
36532 43487
36534 43408
36536 43367
36538 43377
36540 43470
36542 43580
36544 43685
36546 43723
36548 43722
36550 43644
36552 43588
36554 43540
36556 43551
36558 43585
36560 43621
36562 43629
36565 43592
36567 43529
36569 43487
36571 43474
36573 43515
36575 43599
36577 43667
36579 43697
36581 43660
36583 43557
36585 43468
36587 43417
36589 43412
36591 43482
36593 43548
36595 43564
36597 43526
36599 43470
36601 43398
36603 43356
36605 43430
36607 43532
36609 43666
36611 43738
36613 43788
36615 43750
36617 43679
36619 43601
36621 43583
36623 43633
36625 43676
36627 43729
36630 43738
36632 43672
36634 43588
36636 43507
36638 43479
36640 43483
36642 43560
36644 43607
36646 43641
36648 43620
36650 43582
36652 43490
36654 43486
36656 43499
36658 43564
36660 43642
36662 43676
36664 43639
36666 43583
36668 43477
36670 43432
36672 43429
36674 43485
36676 43555
36678 43599
36680 43626
36682 43592
36684 43582
36686 43551
36688 43582
36690 43657
36692 43716
36695 43763
36697 43766
36699 43682
36701 43601
36703 43552
36705 43545
36707 43602
36709 43654
36711 43713
36713 43705
36715 43679
36717 43583
36719 43533
36721 43520
36723 43583
36725 43697
36727 43769
36729 43822
36731 43795
36733 43773
36735 43685
36737 43636
36739 43627
36741 43710
36743 43778
36745 43844
36747 43870
36749 43878
36751 43847
36753 43851
36755 43892
36757 43912
36760 43997
36762 43973
36764 43988
36766 43901
36768 43860
36770 43807
36772 43841
36774 43839
36776 43891
36778 43882
36780 43828
36782 43778
36784 43736
36786 43717
36788 43769
36790 43798
36792 43864
36794 43900
36796 43838
36798 43748
36800 43636
36802 43533
36804 43511
36806 43551
36808 43608
36810 43672
36812 43672
36814 43644
36816 43543
36818 43476
36820 43448
36822 43474
36825 43543
36827 43623
36829 43680
36831 43626
36833 43527
36835 43376
36837 43252
36839 43137
36841 43066
36843 43012
36845 42966
36847 42946
36849 42953
36851 43008
36853 43109
36855 43349
36857 43674
36859 44044
36861 44483
36863 44882
36865 45312
36867 45724
36869 46214
36871 46713
36873 47227
36875 47583
36877 47844
36879 47860
36881 47742
36883 47408
36885 46937
36887 46406
36890 45905
36892 45440
36894 45001
36896 44589
36898 44177
36900 43881
36902 43692
36904 43610
36906 43663
36908 43744
36910 43822
36912 43820
36914 43741
36916 43638
36918 43501
36920 43427
36922 43429
36924 43452
36926 43496
36928 43527
36930 43515
36932 43436
36934 43373
36936 43326
36938 43326
36940 43343
36942 43392
36944 43420
36946 43392
36948 43352
36950 43267
36952 43214
36955 43225
36957 43286
36959 43392
36961 43446
36963 43471
36965 43421
36967 43348
36969 43284
36971 43283
36973 43327
36975 43396
36977 43490
36979 43492
36981 43482
36983 43409
36985 43306
36987 43296
36989 43323
36991 43404
36993 43511
36995 43518
36997 43517
36999 43462
37001 43379
37003 43349
37005 43387
37007 43452
37009 43582
37011 43644
37013 43644
37015 43586
37017 43510
37020 43437
37022 43408
37024 43467
37026 43515
37028 43592
37030 43574
37032 43539
37034 43467
37036 43455
37038 43496
37040 43560
37042 43689
37044 43778
37046 43839
37048 43811
37050 43755
37052 43697
37128 44739
37130 44795
37132 44780
37134 44733
37136 44699
37138 44687
37140 44724
37142 44765
37144 44811
37146 44774
37148 44714
37150 44575
37152 44459
37154 44358
37156 44284
37158 44287
37160 44280
37162 44272
37164 44191
37166 44084
37168 43942
37170 43879
37172 43832
37174 43807
37176 43853
37178 43835
37180 43786
37182 43720
37184 43613
37186 43546
37188 43521
37190 43589
37192 43635
37194 43691
37196 43670
37198 43585
37200 43486
37202 43374
37204 43321
37206 43337
37208 43405
37210 43432
37212 43455
37215 43421
37217 43367
37219 43287
37221 43262
37223 43287
37225 43328
37227 43386
37229 43389
37231 43376
37233 43317
37235 43250
37237 43264
37239 43243
37241 43380
37243 43432
37245 43487
37247 43470
37249 43404
37251 43308
37253 43230
37255 43222
37257 43292
37259 43365
37261 43454
37263 43476
37265 43433
37267 43354
37269 43324
37271 43292
37273 43339
37275 43417
37277 43468
37280 43507
37282 43467
37284 43405
37286 43331
37288 43324
37290 43355
37292 43415
37294 43452
37296 43440
37298 43392
37300 43298
37302 43233
37304 43252
37306 43281
37308 43387
37310 43468
37312 43524
37314 43530
37316 43470
37318 43393
37320 43349
37322 43330
37324 43399
37326 43449
37328 43479
37330 43471
37332 43429
37334 43336
37336 43311
37338 43342
37340 43392
37342 43462
37345 43558
37347 43539
37349 43501
37351 43373
37353 43305
37355 43311
37357 43354
37359 43474
37361 43552
37363 43620
37365 43585
37367 43496
37369 43420
37371 43384
37373 43412
37375 43474
37377 43566
37379 43589
37381 43571
37383 43518
37385 43445
37387 43418
37389 43439
37391 43492
37393 43568
37395 43583
37397 43543
37399 43455
37401 43342
37403 43306
37405 43334
37407 43355
37410 43442
37412 43498
37414 43530
37416 43518
37418 43465
37420 43446
37422 43421
37424 43496
37426 43567
37428 43654
37430 43641
37432 43635
37434 43542
37436 43517
37438 43507
37440 43561
37442 43608
37444 43677
37446 43649
37448 43626
37450 43520
37452 43440
37454 43404
37456 43436
37458 43482
37460 43573
37462 43574
37464 43560
37466 43483
37468 43399
37470 43384
37472 43417
37475 43487
37477 43586
37479 43649
37481 43636
37483 43561
37485 43460
37487 43446
37489 43479
37491 43570
37493 43654
37495 43720
37497 43686
37499 43599
37501 43505
37503 43433
37505 43449
37507 43524
37509 43613
37511 43692
37513 43708
37515 43667
37517 43598
37519 43527
37521 43495
37523 43501
37525 43532
37527 43574
37529 43568
37531 43518
37533 43442
37535 43376
37537 43387
37540 43418
37542 43514
37544 43588
37546 43605
37548 43573
37550 43487
37552 43421
37554 43389
37556 43412
37558 43508
37560 43614
37562 43661
37564 43676
37566 43602
37568 43551
37570 43508
37572 43539
37574 43602
37576 43663
37578 43691
37580 43717
37582 43651
37584 43601
37586 43564
37588 43574
37590 43620
37592 43697
37594 43751
37596 43733
37598 43663
37600 43548
37602 43482
37605 43455
37607 43490
37609 43571
37611 43639
37613 43682
37615 43663
37617 43601
37619 43527
37621 43490
37623 43518
37625 43551
37627 43629
37629 43676
37631 43636
37633 43616
37635 43589
37637 43611
37639 43695
37641 43825
37643 43965
37645 44029
37647 44031
37649 43990
37651 43897
37653 43820
37655 43831
37657 43847
37659 43920
37661 43939
37663 43903
37665 43839
37667 43748
37670 43688
37672 43730
37674 43788
37676 43850
37678 43884
37680 43842
37682 43801
37684 43641
37686 43560
37688 43545
37690 43560
37692 43627
37694 43664
37696 43672
37698 43604
37700 43517
37702 43436
37704 43411
37706 43464
37708 43515
37710 43601
37712 43607
37714 43588
37716 43508
37718 43430
37720 43408
37722 43446
37724 43543
37726 43616
37728 43648
37730 43621
37732 43458
37735 43273
37737 43086
37739 42957
37741 42937
37743 42975
37745 43080
37747 43205
37749 43292
37751 43448
37753 43663
37755 44000
37757 44456
37759 44952
37761 45482
37763 46008
37765 46500
37767 46931
37769 47258
37771 47473
37773 47601
37775 47630
37777 47547
37779 47245
37781 46790
37783 46201
37785 45605
37787 45051
37789 44639
37791 44306
37793 44113
37795 44000
37797 43914
37800 43842
37802 43804
37804 43789
37806 43764
37808 43766
37810 43800
37812 43780
37814 43702
37816 43619
37818 43526
37820 43452
37822 43442
37824 43454
37826 43492
37828 43496
37830 43458
37832 43393
37834 43283
37836 43200
37838 43187
37840 43205
37842 43242
37844 43323
37846 43340
37848 43345
37850 43328
37852 43340
37854 43384
37856 43483
37858 43551
37860 43624
37862 43602
37865 43539
37867 43439
37869 43334
37871 43293
37873 43309
37875 43362
37877 43446
37879 43458
37881 43446
37883 43390
37885 43305
37887 43289
37889 43296
37891 43399
37893 43507
37895 43570
37897 43524
37899 43490
37901 43392
37903 43339
37905 43317
37907 43373
37909 43474
37911 43526
37913 43568
37915 43567
37917 43535
37919 43496
37921 43543
37923 43582
37925 43652
37927 43672
37930 43657
37932 43567
37934 43489
37936 43418
37938 43443
37940 43498
37942 43661
37944 43745
37946 43814
37948 43798
37950 43757
37952 43689
37954 43682
37956 43723
37958 43835
37960 43917
37962 44000
37964 43992
37966 43937
37968 43859
37970 43825
37972 43856
37974 43897
37976 43998
37978 44063
37980 44062
37982 44020
37984 44003
37986 44004
37988 44057
37990 44154
37992 44274
37995 44344
37997 44391
37999 44372
38001 44344
38003 44294
38005 44343
38007 44436
38009 44552
38011 44671
38013 44698
38015 44674
38017 44573
38019 44517
38021 44514
38023 44542
38025 44658
38027 44737
38029 44777
38031 44717
38033 44630
38035 44568
38037 44521
38039 44531
38041 44589
38043 44645
38045 44645
38047 44618
38049 44514
38051 44386
38053 44325
38055 44299
38057 44268
38060 44284
38062 44249
38064 44151
38066 44009
38068 43878
38070 43748
38072 43705
38074 43704
38076 43729
38078 43760
38080 43733
38082 43666
38084 43589
38086 43489
38088 43458
38090 43476
38092 43489
38094 43520
38096 43513
38098 43464
38100 43407
38102 43381
38104 43392
38106 43454
38108 43505
38110 43576
38112 43577
38114 43517
38116 43436
38118 43317
38120 43271
38122 43261
38125 43309
38127 43392
38129 43429
38131 43417
38133 43384
38135 43324
38137 43258
38139 43292
38141 43331
38143 43446
38145 43499
38147 43542
38149 43524
38151 43507
38153 43449
38155 43437
38157 43483
38159 43498
38161 43523
38163 43524
38165 43460
38167 43407
38169 43317
38171 43333
38173 43359
38175 43432
38177 43508
38179 43498
38181 43467
38183 43417
38185 43358
38187 43358
38190 43383
38192 43452
38194 43533
38196 43538
38198 43520
38200 43490
38202 43436
38204 43471
38206 43480
38208 43592
38210 43654
38212 43683
38214 43613
38216 43532
38218 43429
38220 43365
38222 43387
38224 43432
38226 43514
38228 43554
38230 43576
38232 43514
38234 43489
38236 43470
38238 43473
38240 43552
38242 43617
38244 43664
38246 43672
38248 43585
38250 43489
38252 43417
38255 43401
38257 43457
38259 43535
38261 43629
38263 43664
38265 43649
38267 43576
38269 43524
38271 43490
38273 43487
38275 43549
38277 43601
38279 43632
38281 43596
38283 43577
38285 43493
38287 43501
38289 43539
38291 43588
38293 43677
38295 43695
38297 43658
38299 43624
38301 43505
38303 43486
38305 43507
38307 43571
38309 43621
38311 43682
38313 43674
38315 43601
38317 43535
38320 43513
38322 43482
38324 43530
38326 43592
38328 43639
38330 43646
38332 43593
38334 43532
38336 43477
38338 43485
38340 43504
38342 43627
38344 43673
38346 43723
38348 43680
38350 43617
38352 43535
38354 43535
38356 43507
38358 43608
38360 43651
38362 43661
38364 43627
38366 43557
38368 43482
38370 43468
38372 43490
38374 43574
38376 43633
38378 43680
38380 43666
38382 43626
38385 43518
38387 43496
38389 43505
38391 43545
38393 43670
38395 43713
38397 43716
38399 43651
38401 43546
38403 43452
38405 43446
38407 43470
38409 43566
38411 43654
38413 43676
38415 43661
38417 43564
38419 43524
38421 43496
38423 43517
38425 43621
38427 43695
38429 43722
38431 43674
38433 43610
38435 43510
38437 43474
38439 43499
38441 43536
38443 43621
38445 43644
38447 43614
38450 43566
38452 43513
38454 43511
38456 43564
38458 43645
38460 43752
38462 43797
38464 43794
38466 43710
38468 43602
38470 43526
38472 43495
38474 43552
38476 43624
38478 43701
38480 43702
38482 43685
38484 43633
38486 43602
38488 43604
38490 43638
38492 43736
38494 43775
38496 43788
38498 43727
38500 43673
38502 43576
38504 43585
38506 43571
38508 43672
38510 43682
38512 43695
38515 43642
38517 43558
38519 43499
38521 43473
38523 43524
38525 43592
38527 43704
38529 43751
38531 43767
38533 43730
38535 43654
38537 43677
38539 43682
38541 43738
38543 43788
38545 43800
38547 43786
38549 43729
38551 43649
38553 43639
38555 43714
38557 43810
38559 43962
38561 44057
38563 44054
38565 44010
38567 43907
38569 43838
38571 43817
38573 43851
38575 43876
38577 43994
38580 43969
38582 43913
38584 43845
38586 43757
38588 43748
38590 43786
38592 43848
38594 43938
38596 43925
38598 43912
38600 43791
38602 43680
38604 43616
38606 43602
38608 43669
38610 43760
38612 43804
38614 43797
38616 43714
38618 43652
38620 43576
38622 43564
38624 43595
38626 43655
38628 43695
38630 43677
38632 43673
38634 43630
38636 43613
38638 43623
38640 43692
38642 43714
38645 43672
38647 43604
38649 43417
38651 43184
38653 43000
38655 42857
38657 42828
38659 42875
38661 43038
38663 43169
38665 43328
38667 43521
38669 43748
38671 44056
38673 44472
38675 44938
38677 45431
38679 45949
38681 46408
38683 46841
38685 47183
38687 47411
38689 47554
38691 47563
38693 47508
38695 47248
38697 46822
38699 46263
38701 45699
38703 45178
38705 44745
38707 44455
38710 44215
38712 44088
38714 43962
38716 43912
38718 43832
38720 43792
38722 43791
38724 43760
38726 43794
38728 43776
38730 43741
38732 43642
38734 43567
38736 43492
38738 43446
38740 43473
38742 43487
38744 43521
38746 43479
38748 43401
38750 43311
38752 43233
38754 43231
38756 43280
38758 43364
38760 43471
38762 43485
38764 43436
38766 43349
38768 43287
38770 43262
38772 43309
38775 43412
38777 43524
38779 43573
38781 43568
38783 43513
38785 43390
38787 43351
38789 43333
38791 43368
38793 43464
38795 43483
38797 43473
38799 43452
38801 43359
38803 43330
38805 43359
38807 43418
38809 43504
38811 43551
38813 43529
38815 43487
38817 43401
38819 43330
38821 43346
38823 43390
38825 43495
38827 43574
38829 43638
38831 43636
38833 43595
38835 43539
38837 43549
38840 43583
38842 43652
38844 43661
38846 43688
38848 43658
38850 43607
38852 43552
38854 43583
38856 43626
38858 43713
38860 43813
38862 43838
38864 43801
38866 43757
38868 43680
38870 43641
38872 43666
38874 43722
38876 43822
38878 43941
38880 43990
38882 44001
38884 43965
38886 43957
38888 43947
38890 44028
38892 44081
38894 44143
38896 44150
38898 44146
38900 44091
38903 44081
38905 44138
38907 44227
38909 44333
38911 44418
38913 44467
38915 44439
38917 44394
38919 44344
38921 44315
38923 44363
38925 44446
38927 44502
38929 44573
38931 44578
38933 44590
38935 44575
38937 44598
38939 44655
38941 44720
38943 44805
38945 44808
38947 44792
38949 44709
38951 44636
38953 44593
38955 44620
38957 44712
38959 44740
38961 44779
38963 44708
38965 44605
38967 44414
38970 44327
38972 44255
38974 44265
38976 44285
38978 44287
38980 44243
38982 44119
38984 43962
38986 43863
38988 43741
38990 43757
38992 43755
38994 43792
38996 43782
38998 43722
39000 43644
39002 43561
39004 43502
39006 43501
39008 43526
39010 43573
39012 43546
39014 43520
39016 43437
39018 43328
39020 43318
39022 43326
39024 43374
39026 43443
39028 43477
39030 43445
39032 43427
39035 43340
39037 43333
39039 43320
39041 43421
39043 43458
39045 43489
39047 43458
39049 43362
39051 43280
39053 43196
39055 43224
39057 43273
39059 43401
39061 43454
39063 43493
39065 43457
39067 43373
39069 43312
39071 43309
39073 43380
39075 43448
39077 43517
39079 43552
39081 43479
39083 43427
39085 43339
39087 43302
39089 43346
39091 43420
39093 43470
39095 43510
39097 43489
39100 43437
39102 43393
39104 43374
39106 43383
39108 43452
39110 43535
39112 43551
39114 43563
39116 43471
39118 43409
39120 43370
39122 43370
39124 43420
39126 43492
39128 43545
39130 43548
39132 43499
39134 43465
39136 43396
39138 43414
39140 43470
39142 43554
39144 43638
39146 43636
39148 43635
39230 43670
39232 43604
39234 43526
39236 43443
39238 43443
39240 43493
39242 43574
39244 43649
39246 43672
39248 43692
39250 43660
39252 43602
39254 43596
39256 43638
39258 43716
39260 43752
39262 43785
39264 43733
39266 43689
39268 43570
39270 43518
39272 43554
39274 43582
39276 43658
39278 43686
39280 43673
39282 43593
39284 43545
39286 43477
39288 43505
39290 43548
39292 43654
39295 43677
39297 43719
39299 43652
39301 43567
39303 43504
39305 43490
39307 43513
39309 43610
39311 43664
39313 43697
39315 43692
39317 43638
39319 43595
39321 43596
39323 43624
39325 43672
39327 43720
39329 43716
39331 43648
39333 43563
39335 43482
39337 43468
39339 43514
39341 43595
39343 43695
39345 43758
39347 43736
39349 43654
39351 43571
39353 43495
39355 43507
39357 43545
39360 43601
39362 43644
39364 43621
39366 43574
39368 43529
39370 43532
39372 43548
39374 43677
39376 43776
39378 43851
39380 43867
39382 43817
39384 43680
39386 43589
39388 43566
39390 43573
39392 43621
39394 43673
39396 43674
39398 43646
39400 43586
39402 43546
39404 43546
39406 43593
39408 43635
39410 43682
39412 43711
39414 43663
39416 43623
39418 43560
39420 43545
39422 43586
39425 43667
39427 43716
39429 43720
39431 43670
39433 43617
39435 43508
39437 43486
39439 43474
39441 43574
39443 43635
39445 43702
39447 43697
39449 43682
39451 43619
39453 43595
39455 43645
39457 43741
39459 43804
39461 43907
39463 43919
39465 43878
39467 43825
39469 43779
39471 43806
39473 43853
39475 43951
39477 44009
39479 44020
39481 43998
39483 43914
39485 43873
39487 43838
39490 43897
39492 43956
39494 43988
39496 43997
39498 43953
39500 43872
39502 43785
39504 43806
39506 43801
39508 43900
39510 43957
39512 43951
39514 43901
39516 43794
39518 43686
39520 43614
39522 43585
39524 43645
39526 43688
39528 43704
39530 43677
39532 43579
39534 43523
39536 43485
39538 43535
39540 43627
39542 43705
39544 43792
39546 43776
39548 43729
39550 43641
39552 43583
39555 43582
39557 43567
39559 43636
39561 43639
39563 43564
39565 43432
41784 43505
41786 43439
41788 43371
41790 43407
41792 43432
41794 43567
41796 43627
41798 43614
41800 43588
41802 43527
41804 43492
41806 43476
41808 43543
41810 43621
41812 43691
41814 43691
41816 43655
41818 43576
41820 43517
41822 43480
41824 43493
41826 43566
41828 43629
41830 43677
41832 43666
41834 43635
41836 43582
41838 43563
41841 43595
41843 43642
41845 43689
41847 43683
41849 43630
41851 43551
41853 43476
41855 43434
41857 43501
41859 43599
41861 43670
41863 43745
41865 43745
41867 43688
41869 43627
41871 43582
41873 43591
41875 43655
41877 43742
41879 43788
41881 43760
41883 43698
41885 43591
41887 43496
41889 43449
41891 43508
41893 43568
41895 43626
41897 43667
41899 43608
41901 43586
41903 43520
41905 43536
41907 43570
41909 43661
41911 43702
41913 43729
41915 43708
41917 43620
41919 43551
41921 43527
41923 43538
41925 43599
41927 43679
41929 43698
41931 43677
41933 43626
41935 43582
41937 43517
41939 43555
41941 43604
41943 43660
41945 43716
41947 43695
41949 43624
41951 43611
41953 43555
41955 43617
41958 43651
41960 43738
41962 43745
41964 43729
41966 43670
41968 43614
41970 43577
41972 43588
41974 43632
41976 43685
41978 43723
41980 43666
41982 43582
41984 43511
41986 43448
41988 43448
41990 43492
41992 43616
41994 43682
41996 43723
41998 43714
42000 43666
42002 43579
42004 43558
42006 43577
42008 43613
42010 43686
42012 43674
42014 43658
42016 43561
42018 43483
42020 43479
42023 43520
42025 43619
42027 43738
42029 43798
42031 43814
42033 43760
42035 43708
42037 43642
42039 43633
42041 43667
42043 43738
42045 43803
42047 43806
42049 43751
42051 43685
42053 43620
42055 43589
42057 43623
42059 43657
42061 43685
42063 43676
42065 43629
42067 43560
42069 43511
42071 43530
42073 43582
42075 43655
42077 43747
42079 43780
42081 43738
42083 43692
42085 43627
42087 43605
42090 43629
42092 43682
42094 43729
42096 43767
42098 43732
42100 43702
42102 43680
42104 43682
42106 43751
42108 43798
42110 43889
42112 43962
42114 43954
42116 43957
42118 43900
42120 43894
42122 43909
42124 43985
42126 44087
42128 44135
42130 44157
42132 44116
42134 44034
42136 44010
42138 43994
42140 44043
42142 44078
42144 44082
42146 44051
42148 43944
42150 43835
42153 43760
42155 43729
42157 43755
42159 43800
42161 43828
42163 43847
42165 43778
42167 43691
42169 43642
42171 43589
42173 43614
42175 43697
42177 43766
42179 43797
42181 43752
42183 43685
42185 43564
42187 43493
42189 43501
42191 43540
42193 43588
42195 43654
42197 43623
42199 43574
42201 43517
42203 43457
42205 43409
42207 43401
42209 43349
42211 43267
42213 43174
42215 43030
42218 42974
42220 42974
42222 43089
42224 43315
42226 43630
42228 43992
42230 44366
42232 44748
42234 45133
42236 45562
42238 46055
42240 46581
42242 47062
42244 47445
42246 47626
42248 47579
42250 47357
42252 47044
42254 46625
42256 46196
42258 45746
42260 45388
42262 45004
42264 44673
42266 44352
42268 44050
42270 43845
42272 43745
42274 43758
42276 43816
42278 43832
42280 43831
42283 43779
42285 43688
42287 43593
42289 43552
42291 43557
42293 43582
42295 43623
42297 43604
42299 43538
42301 43449
42303 43361
42305 43348
42307 43371
42309 43411
42311 43462
42313 43480
42315 43429
42317 43411
42319 43355
42321 43351
42323 43376
42325 43440
42327 43457
42329 43485
42331 43443
42333 43383
42335 43320
42337 43340
42339 43383
42341 43490
42343 43576
42345 43607
42348 43552
42350 43477
42352 43367
42354 43328
42356 43358
42358 43429
42360 43508
42362 43549
42364 43545
42366 43496
42368 43421
42370 43386
42372 43402
42374 43490
42376 43561
42378 43610
42380 43614
42382 43566
42384 43483
42386 43448
42388 43449
42390 43511
42392 43613
42394 43688
42396 43701
42398 43649
42400 43589
42402 43496
42404 43490
42406 43504
42408 43574
42410 43642
42413 43670
42415 43679
42417 43621
42419 43596
42421 43585
42423 43660
42425 43725
42427 43829
42429 43876
42431 43889
42433 43881
42435 43826
42437 43857
42439 43867
42441 43935
42443 44006
42445 44050
42447 44035
42449 44022
42451 43966
42453 43932
42455 43973
42469 44185
42471 44216
42473 44263
42475 44387
42477 44484
42480 44561
42482 44545
42484 44497
42486 44411
42488 44419
42490 44483
42492 44599
42494 44698
42496 44799
42498 44782
42500 44765
42502 44698
42504 44693
42506 44693
42508 44718
42510 44792
42512 44774
42514 44748
42516 44651
42518 44534
42520 44464
42522 44455
42524 44468
42526 44528
42528 44552
42530 44462
42532 44369
42534 44200
42536 44063
42538 44029
42540 44015
42542 44040
42545 44059
42547 44016
42549 43909
42551 43776
42553 43654
42555 43605
42557 43598
42559 43646
42561 43710
42563 43730
42565 43722
42567 43663
42569 43614
42571 43588
42573 43579
42575 43591
42577 43607
42579 43576
42581 43517
42583 43420
42585 43348
42587 43299
42589 43330
42591 43412
42593 43458
42595 43504
42597 43511
42599 43445
42601 43401
42603 43346
42605 43326
42607 43384
42610 43426
42612 43479
42614 43501
42616 43455
42618 43415
42620 43370
42622 43362
42624 43429
42626 43502
42628 43558
42630 43568
42632 43510
42634 43436
42636 43336
42638 43346
42640 43376
42642 43467
42644 43588
42646 43605
42648 43589
42650 43515
42652 43420
42654 43324
42656 43314
42658 43324
42660 43362
42662 43409
42664 43381
42666 43376
42668 43365
42670 43376
42672 43433
42675 43498
42677 43601
42679 43633
42681 43607
42683 43592
42685 43495
42687 43467
42689 43442
42691 43510
42693 43570
42695 43636
42697 43627
42699 43579
42701 43554
42703 43490
42705 43513
42707 43563
42709 43646
42711 43672
42713 43691
42715 43599
42717 43523
42719 43440
42721 43390
42723 43417
42725 43498
42727 43546
42729 43582
42731 43579
42733 43555
42735 43504
42737 43492
42740 43545
42742 43611
42744 43670
42746 43680
42748 43632
42750 43554
42752 43460
42754 43437
42756 43470
42758 43524
42760 43621
42762 43661
42764 43654
42766 43633
42768 43591
42770 43568
42772 43571
42774 43616
42776 43685
42778 43729
42780 43691
42782 43620
42784 43548
42786 43464
42788 43451
42790 43492
42792 43564
42794 43614
42796 43632
42798 43561
42800 43514
42802 43436
42805 43404
42824 43649
42826 43733
42828 43769
42830 43775
42832 43720
42834 43654
42836 43545
42838 43514
42840 43543
42842 43608
42844 43666
42846 43688
42848 43683
42850 43616
42852 43560
42854 43529
42856 43548
42858 43669
42860 43723
42862 43804
42864 43783
42866 43738
42868 43664
42870 43567
42872 43552
42874 43552
42876 43592
42878 43639
42880 43660
42882 43617
42884 43563
42886 43507
42888 43508
42890 43546
42892 43602
42894 43708
42896 43720
42898 43698
42900 43635
42902 43588
42904 43577
42906 43599
42908 43677
42910 43714
42912 43745
42914 43708
42916 43635
42918 43580
42920 43530
42922 43546
42924 43630
42926 43677
42928 43717
42930 43702
42933 43673
42935 43632
42937 43585
42939 43635
42941 43651
42943 43745
42945 43769
42947 43733
42949 43695
42951 43586
42953 43540
42955 43530
42957 43592
42959 43672
42961 43744
42963 43783
42965 43775
42967 43751
42969 43714
42971 43705
42973 43751
42975 43807
42977 43872
42979 43909
42981 43898
42983 43861
42985 43820
42987 43822
42989 43856
42991 43934
42993 44004
42995 44026
42997 44019
43000 43953
43002 43898
43004 43861
43006 43866
43008 43916
43010 43981
43012 44006
43014 43976
43016 43895
43018 43804
43020 43701
43022 43716
43024 43726
43026 43776
43028 43806
43030 43788
43032 43733
43034 43626
43036 43577
43038 43540
43040 43582
43042 43658
43044 43741
43046 43769
43048 43752
43050 43697
43052 43614
43054 43598
43056 43595
43058 43635
43060 43658
43062 43658
43065 43589
43067 43479
43069 43367
43071 43274
43073 43230
43075 43171
43077 43144
43079 43058
43081 42997
43083 42959
43085 42971
43087 43081
43089 43299
43091 43593
43093 43954
43095 44349
43097 44729
43099 45088
43101 45525
43103 45945
43105 46504
43107 47031
43109 47489
43111 47753
43113 47819
43115 47685
43117 47405
43119 47003
43121 46517
43123 46051
43125 45599
43127 45182
43130 44758
43132 44352
43134 44032
43136 43789
43138 43716
43140 43726
43142 43788
43144 43831
43146 43828
43148 43705
43150 43577
43152 43455
43154 43402
43156 43408
43158 43508
43275 43577
43277 43716
43279 43794
43281 43829
43283 43779
43285 43689
43287 43624
43289 43629
43291 43688
43293 43797
43295 43892
43297 43929
43299 43939
43301 43895
43303 43845
43305 43832
43307 43860
43309 43900
43311 43966
43313 43997
43315 43990
43317 43926
43319 43872
43321 43848
43323 43929
43325 44034
43327 44179
43329 44274
43331 44322
43333 44303
43335 44266
43337 44246
43339 44274
43341 44343
43343 44449
43345 44546
43347 44561
43349 44573
43351 44512
43353 44461
43355 44461
43357 44502
43359 44603
43361 44668
43363 44695
43365 44686
43367 44648
43369 44615
43371 44620
43373 44681
43375 44757
43377 44802
43379 44827
43381 44764
43383 44631
43385 44567
43387 44447
43390 44416
43392 44412
43394 44400
43396 44350
43398 44269
43400 44157
43402 43991
43404 43963
43406 43917
43408 43976
43410 43990
43412 44022
43414 43928
43416 43814
43418 43702
43420 43585
43422 43536
43424 43557
43426 43596
43428 43639
43430 43621
43432 43571
43434 43487
43436 43417
43438 43427
43440 43471
43442 43545
43444 43577
43446 43601
43448 43501
43450 43433
43452 43342
43455 43339
43457 43373
43459 43490
43461 43571
43463 43624
43465 43580
43467 43520
43469 43405
43471 43377
43473 43328
43475 43398
43477 43437
43479 43477
43481 43446
43483 43414
43485 43328
43487 43302
43489 43305
43491 43354
43493 43442
43495 43477
43497 43465
43499 43395
43501 43318
43503 43267
43505 43278
43507 43365
43509 43462
43511 43536
43513 43561
43515 43540
43518 43471
43520 43383
43522 43381
43524 43379
43526 43454
43528 43513
43530 43564
43532 43545
43534 43510
43536 43470
43538 43467
43540 43492
43542 43557
43544 43580
43546 43619
43548 43554
43550 43464
43552 43402
43554 43359
43556 43390
43558 43433
43560 43511
43562 43551
43564 43513
43566 43457
43568 43398
43570 43334
43572 43401
43574 43461
43576 43585
43578 43649
43580 43642
43583 43607
43585 43510
43587 43462
43589 43433
43591 43483
43593 43563
43595 43613
43597 43639
43599 43627
43601 43577
43603 43540
43605 43524
43607 43557
43609 43608
43611 43673
43613 43691
43615 43663
43617 43599
43619 43530
43621 43490
43623 43543
43625 43593
43627 43664
43629 43683
43631 43645
43633 43549
43635 43461
43637 43424
43639 43464
43641 43502
43643 43632
43645 43701
43647 43708
43650 43646
43652 43571
43654 43483
43656 43498
43658 43523
43660 43592
43662 43644
43664 43661
43666 43672
43668 43641
43670 43604
43672 43619
43674 43636
43676 43661
43678 43672
43680 43652
43682 43563
43684 43470
43686 43417
43688 43408
43690 43458
43692 43599
43694 43695
43696 43757
43698 43714
43700 43632
43702 43551
43704 43511
43706 43477
43708 43514
43710 43573
43712 43593
43715 43586
43717 43558
43719 43517
43721 43515
43723 43548
43725 43607
43727 43727
43729 43707
43731 43707
43733 43635
43735 43552
43737 43493
43739 43518
43741 43571
43743 43655
43745 43683
43747 43701
43749 43649
43751 43583
43753 43538
43755 43521
43757 43555
43759 43608
43761 43646
43763 43624
43765 43613
43767 43517
43769 43446
43771 43467
43773 43510
43775 43617
43778 43694
43780 43691
43782 43666
43784 43538
43786 43457
43788 43411
43790 43423
43792 43536
43794 43610
43796 43688
43798 43682
43800 43644
43802 43595
43804 43523
43806 43521
43808 43563
43810 43624
43812 43652
43814 43651
43816 43585
43818 43526
43820 43502
43822 43521
43824 43613
43826 43670
43828 43757
43830 43758
43832 43714
43834 43641
43836 43563
43838 43540
43840 43582
43843 43613
43845 43683
43847 43688
43849 43658
43851 43605
43853 43623
43855 43629
43857 43764
43859 43906
43861 44047
43863 44094
43865 44076
43867 44003
43869 43922
43871 43841
43873 43867
43875 43942
43877 44016
43879 44065
43881 44059
43883 43951
43885 43903
43887 43845
43889 43845
43891 43876
43893 43931
43895 43948
43897 43889
43899 43778
43901 43664
43903 43576
43905 43566
43907 43601
43910 43685
43912 43775
43914 43795
43916 43729
43918 43645
43920 43552
43922 43510
43924 43518
43926 43579
43928 43621
43930 43629
43932 43649
43934 43636
43936 43596
43938 43592
43940 43608
43942 43657
43944 43645
43946 43593
43969 43683
43971 43925
43973 44309
43975 44755
43977 45320
43979 45875
43981 46423
43983 46912
43985 47346
43987 47605
43989 47763
43991 47828
43993 47810
43995 47594
43997 47180
43999 46625
44001 45999
44003 45385
44005 44833
44007 44415
44009 44087
44011 43931
44013 43854
44015 43817
44017 43791
44019 43767
44021 43764
44023 43764
44025 43816
44027 43859
44029 43838
44031 43780
44033 43661
44035 43536
44037 43421
44040 43405
44042 43414
44044 43471
44046 43482
44048 43468
44050 43376
44052 43311
44054 43242
44056 43262
44058 43327
44060 43418
44062 43482
44064 43477
44066 43424
44068 43340
44070 43273
44072 43295
44074 43334
44076 43429
44078 43505
44080 43513
44082 43465
44084 43373
44086 43306
44088 43295
44090 43336
44092 43439
44094 43542
44096 43557
44098 43551
44100 43477
44102 43402
44105 43389
44107 43381
44109 43445
44111 43520
44113 43548
44115 43543
44117 43490
44119 43412
44121 43389
44123 43433
44125 43483
44127 43583
44129 43591
44131 43571
44133 43538
44135 43464
44137 43407
44139 43464
44141 43571
44143 43660
44145 43736
44147 43754
44149 43736
44151 43667
44153 43646
44155 43657
44157 43725
44159 43764
44161 43813
44163 43811
44165 43747
44168 43689
44170 43661
44172 43633
44174 43739
44176 43808
44178 43873
44180 43937
44182 43920
44184 43857
44186 43841
44188 43842
44190 43913
44192 44000
44194 44081
44196 44134
44198 44168
44200 44115
44202 44125
44204 44137
44206 44224
44208 44315
44210 44433
44212 44518
44214 44509
44216 44492
44218 44402
44220 44361
44222 44402
44224 44478
44226 44593
44228 44671
44230 44701
44232 44704
44235 44654
44237 44606
44239 44611
44241 44680
44243 44732
44245 44823
44247 44846
44249 44839
44251 44740
44253 44680
44255 44599
44257 44617
44259 44615
44261 44655
44263 44612
44265 44549
44267 44452
44269 44386
44271 44318
44273 44315
44275 44368
44277 44340
44279 44313
44281 44231
44283 44107
44285 43929
44287 43860
44289 43797
44291 43801
44293 43836
44295 43819
44298 43763
44300 43670
44302 43555
44304 43485
44339 43442
44341 43451
44343 43498
44345 43515
44347 43507
44349 43476
44351 43404
44353 43343
44355 43368
44357 43409
44359 43532
44361 43610
44363 43655
44365 43619
44367 43529
44369 43415
44371 43315
44373 43326
44375 43349
44377 43414
44379 43462
44381 43482
44383 43408
44385 43361
44387 43289
44389 43305
44391 43331
44393 43405
44395 43477
44397 43477
44399 43471
44401 43404
44403 43393
44405 43404
44407 43483
44409 43571
44411 43651
44413 43646
44415 43586
44417 43513
44419 43420
44421 43389
44423 43405
44425 43474
44428 43558
44430 43552
44432 43535
44434 43417
44436 43352
44438 43249
44440 43312
44442 43356
44444 43487
44446 43558
44448 43616
44450 43576
44452 43499
44454 43465
44456 43454
44458 43489
44460 43574
44462 43595
44464 43599
44466 43552
44468 43493
44470 43432
44472 43420
44474 43454
44476 43521
44478 43591
44480 43616
44482 43611
44484 43555
44486 43536
44488 43529
44490 43588
44493 43644
44495 43682
44497 43672
44499 43619
44501 43520
44503 43464
44505 43452
44507 43490
44509 43558
44511 43649
44513 43697
44515 43642
44517 43605
44519 43515
44521 43490
44523 43499
44525 43549
44527 43601
44529 43605
44531 43592
44533 43529
44535 43476
44537 43476
44539 43530
44541 43596
44543 43689
44545 43739
44547 43719
44549 43651
44551 43563
44553 43470
44555 43473
44558 43479
44560 43560
44562 43601
44564 43610
44566 43577
44568 43518
44570 43476
44572 43499
44574 43540
44576 43663
44578 43755
44580 43778
44582 43742
44584 43652
44586 43560
44588 43502
44590 43499
44592 43540
44594 43571
44596 43632
44598 43570
44600 43536
44602 43474
44604 43458
44606 43501
44608 43583
44610 43655
44612 43732
44614 43720
44616 43651
44618 43613
44620 43542
44623 43552
44625 43620
44627 43645
44629 43683
44631 43667
44633 43601
44635 43526
44637 43467
44639 43460
44641 43521
44643 43629
44645 43702
44647 43738
44649 43726
44651 43669
44653 43593
44655 43577
44657 43570
44659 43621
44661 43658
44663 43685
44665 43663
44667 43579
44669 43486
44671 43493
44673 43513
44704 43543
44706 43545
44708 43613
44710 43704
44712 43767
44714 43751
44716 43711
44718 43642
44720 43573
44722 43583
44724 43644
44726 43691
44728 43776
44730 43791
44732 43794
44734 43769
44736 43750
44738 43776
44740 43842
44742 43941
44744 44003
44746 44028
44748 43988
44750 43923
44753 43848
44755 43863
44757 43898
44759 43984
44761 44050
44763 44091
44765 44066
44767 43998
44769 43925
44771 43856
44773 43859
44775 43882
44777 43913
44779 43872
44781 43789
44783 43719
44785 43613
44787 43560
44789 43576
44791 43626
44793 43694
44795 43773
44797 43779
44799 43722
44801 43639
44803 43560
44805 43535
44807 43533
44809 43617
44811 43645
44813 43676
44815 43629
44817 43542
44820 43479
44822 43429
44824 43424
44826 43427
44828 43423
44830 43323
44832 43202
44834 42997
44836 42866
44838 42849
44840 42931
44842 43152
44844 43415
44846 43697
44848 43982
44850 44274
44852 44595
44854 44945
44856 45418
44858 45983
44860 46591
44862 47125
44864 47548
44866 47735
44868 47741
44870 47654
44872 47502
44874 47195
44876 46802
44878 46345
44880 45805
44883 45242
44885 44674
44887 44212
44889 43886
44891 43776
44893 43775
44895 43847
44897 43935
44899 43937
44901 43900
44903 43788
44905 43767
44907 43732
44909 43736
44911 43754
44913 43726
44915 43682
44917 43582
44919 43499
44921 43427
44923 43426
44925 43423
44927 43461
44929 43439
44931 43389
44933 43314
44935 43239
44937 43231
44939 43295
44941 43396
44943 43490
44945 43589
44948 43551
44950 43498
44952 43395
44954 43323
44956 43305
44958 43370
44960 43443
44962 43495
44964 43542
44966 43483
44968 43411
44970 43327
44972 43298
44974 43359
44976 43418
44978 43487
44980 43546
44982 43524
44984 43479
44986 43445
44988 43399
44990 43415
44992 43477
44994 43549
44996 43580
44998 43546
45000 43492
45002 43417
45004 43414
45006 43439
45008 43524
45010 43589
45012 43658
45015 43636
45017 43561
45019 43502
45021 43483
45023 43510
45025 43633
45027 43705
45029 43785
45031 43786
45033 43739
45035 43657
45037 43617
45039 43604
45129 44944
45131 44941
45133 44852
45135 44752
45137 44621
45139 44577
45141 44573
45143 44573
45145 44606
45147 44577
45149 44508
45151 44412
45153 44244
45155 44168
45157 44150
45159 44150
45161 44218
45163 44224
45165 44131
45167 44029
45169 43898
45171 43817
45173 43757
45175 43782
45177 43785
45179 43795
45181 43754
45183 43672
45185 43568
45187 43517
45189 43487
45191 43501
45193 43576
45195 43586
45197 43563
45199 43502
45201 43437
45203 43352
45205 43356
45208 43424
45210 43485
45212 43561
45214 43592
45216 43527
45218 43452
45220 43358
45222 43315
45224 43351
45226 43393
45228 43492
45230 43523
45232 43504
45234 43455
45236 43414
45238 43389
45240 43445
45242 43487
45244 43577
45246 43588
45248 43564
45250 43508
45252 43418
45254 43367
45256 43396
45258 43432
45260 43526
45262 43570
45264 43542
45266 43495
45268 43387
45270 43336
45273 43308
45275 43396
45277 43473
45279 43563
45281 43561
45283 43517
45285 43440
45287 43376
45289 43365
45291 43429
45293 43511
45295 43563
45297 43596
45299 43577
45301 43510
45303 43455
45305 43426
45307 43473
45309 43496
45311 43592
45313 43611
45315 43580
45317 43549
45319 43474
45321 43429
45323 43490
45325 43561
45327 43648
45329 43682
45331 43657
45333 43595
45335 43526
45338 43468
45340 43501
45342 43571
45344 43623
45346 43673
45348 43664
45350 43589
45352 43482
45354 43411
45356 43415
45358 43476
45360 43566
45362 43658
45364 43661
45366 43649
45368 43598
45370 43548
45372 43546
45374 43602
45376 43666
45378 43729
45380 43754
45382 43674
45384 43621
45386 43536
45388 43539
45390 43588
45392 43645
45394 43699
45396 43713
45398 43657
45400 43579
45403 43499
45405 43465
45407 43492
45409 43593
45411 43711
45413 43788
45415 43792
45417 43750
45419 43707
45421 43661
45423 43667
45425 43704
45427 43779
45429 43786
45431 43763
45433 43720
45435 43595
45437 43539
45439 43501
45441 43558
45443 43601
45445 43652
45447 43710
45449 43652
45451 43638
45453 43568
45455 43601
45457 43636
45459 43726
45461 43807
45463 43795
45465 43775
45468 43670
45470 43608
45472 43577
45474 43605
45476 43722
45478 43795
45480 43833
45482 43808
45484 43716
45486 43657
45488 43607
45490 43639
45492 43673
45494 43773
45496 43785
45498 43816
45500 43779
45502 43719
45504 43682
45506 43685
45508 43730
45510 43789
45512 43833
45514 43831
45516 43778
45518 43710
45520 43632
45522 43629
45524 43638
45526 43716
45528 43735
45530 43744
45533 43714
45535 43672
45537 43624
45539 43646
45541 43669
45543 43758
45545 43803
45547 43823
45549 43760
45551 43686
45553 43595
45555 43560
45557 43582
45559 43633
45561 43741
45563 43785
45565 43807
45567 43800
45569 43773
45571 43751
45573 43752
45575 43816
45577 43856
45579 43895
45581 43885
45583 43826
45585 43761
45587 43767
45589 43803
45591 43932
45593 44068
45595 44159
45598 44194
45600 44122
45602 44063
45604 43973
45606 43965
45608 44013
45610 44084
45612 44141
45614 44135
45616 44068
45618 43947
45620 43838
45622 43804
45624 43825
45626 43888
45628 43979
45630 43957
45632 43909
45634 43791
45636 43666
45638 43591
45640 43592
45642 43602
45644 43666
45646 43676
45648 43651
45650 43613
45652 43561
45654 43564
45656 43632
45658 43779
45660 43873
45663 43938
45665 43900
45667 43789
45669 43682
45671 43573
45673 43533
45675 43566
45677 43610
45679 43608
45681 43545
45683 43376
45685 43193
45687 42997
45689 42962
45691 43013
45693 43172
45695 43374
45697 43610
45699 43801
45701 44034
45703 44325
45705 44687
45707 45126
45709 45621
45711 46138
45713 46594
45715 46971
45717 47237
45719 47354
45721 47402
45723 47345
45725 47206
45728 46993
45730 46595
45732 46079
45734 45515
45736 44985
45738 44558
45740 44247
45742 44071
45744 43979
45746 43947
45748 43884
45750 43848
45752 43755
45754 43738
45756 43733
45758 43779
45760 43814
45762 43804
45764 43798
45766 43649
45768 43577
45770 43482
45772 43465
45774 43499
45776 43571
45778 43630
45780 43614
45782 43561
45784 43485
45786 43389
45788 43370
45790 43396
45793 43465
45795 43526
45797 43548
45799 43492
45801 43449
45803 43387
45805 43339
45807 43364
45809 43430
45811 43536
45813 43617
45815 43641
45817 43571
45819 43554
45821 43440
45823 43457
45825 43502
45827 43549
45829 43596
45831 43579
45833 43535
45835 43460
45837 43402
45839 43418
45841 43487
45843 43546
45845 43655
45847 43655
45849 43644
45851 43596
45853 43563
45855 43545
45858 43596
45860 43639
45862 43680
45864 43666
45866 43633
45868 43539
45870 43514
45872 43539
45874 43583
45876 43695
45878 43738
45880 43766
45882 43742
45884 43676
45886 43605
45888 43613
45890 43666
45892 43760
45894 43853
45896 43920
45898 43903
45900 43839
45902 43761
45904 43736
45906 43770
45908 43831
45910 43922
45912 43991
45914 43990
45916 43987
45918 43876
45920 43838
45923 43878
45925 43985
45927 44118
45929 44247
45931 44333
45933 44358
45935 44333
45937 44290
45939 44281
45941 44313
45943 44384
45945 44468
45947 44484
45949 44484
45951 44443
45953 44412
45955 44393
45957 44458
45959 44534
45961 44627
45963 44676
45965 44686
45967 44627
45969 44589
45971 44577
45973 44636
45975 44757
45977 44843
45979 44927
45981 44942
45983 44860
45985 44761
45988 44654
45990 44633
45992 44627
45994 44640
45996 44665
45998 44630
46000 44531
46002 44425
46004 44318
46006 44249
46008 44235
46010 44191
46012 44188
46014 44106
46016 44032
46018 43895
46020 43816
46022 43769
46024 43789
46026 43823
46028 43866
46030 43847
46032 43772
46034 43688
46036 43586
46038 43548
46040 43561
46042 43621
46044 43677
46046 43717
46048 43649
46050 43574
46053 43432
46055 43401
46057 43395
46059 43464
46061 43530
46063 43564
46065 43580
46067 43514
46069 43468
46071 43412
46073 43442
46075 43465
46077 43552
46079 43599
46081 43604
46083 43554
46085 43492
46087 43454
46089 43437
46091 43479
46093 43542
46095 43593
46097 43589
46099 43549
46101 43470
46103 43408
46105 43384
46107 43434
46109 43513
46111 43605
46113 43641
46115 43624
46118 43583
46120 43470
46122 43436
46124 43442
46126 43479
46128 43571
46130 43595
46132 43593
46134 43514
46136 43468
46138 43424
46226 43664
46228 43739
46230 43804
46232 43758
46234 43685
46236 43588
46238 43542
46240 43535
46242 43582
46244 43636
46246 43672
46248 43670
46250 43641
46252 43592
46254 43599
46256 43592
46258 43669
46260 43741
46262 43828
46264 43798
46266 43780
46268 43701
46270 43629
46272 43577
46274 43598
46276 43648
46278 43722
46280 43745
46282 43741
46284 43686
46286 43646
46288 43604
46290 43646
46292 43667
46294 43730
46296 43723
46298 43705
46300 43619
46302 43535
46304 43446
46306 43442
46308 43485
46310 43567
46313 43641
46315 43697
46317 43688
46319 43666
46321 43639
46323 43636
46325 43688
46327 43735
46329 43758
46331 43783
46333 43717
46335 43672
46337 43571
46339 43598
46341 43602
46343 43704
46345 43782
46347 43810
46349 43769
46351 43727
46353 43627
46355 43632
46357 43621
46359 43673
46361 43732
46363 43736
46365 43708
46367 43655
46369 43588
46371 43570
46373 43620
46375 43679
46378 43767
46380 43813
46382 43761
46384 43708
46386 43598
46388 43552
46390 43576
46392 43666
46394 43755
46396 43832
46398 43828
46400 43803
46402 43698
46404 43614
46406 43580
46408 43626
46410 43723
46412 43770
46414 43828
46416 43770
46418 43705
46420 43677
46422 43646
46424 43713
46426 43764
46428 43829
46430 43859
46432 43861
46434 43841
46436 43850
46438 43856
46440 43888
46443 43972
46445 44006
46447 44009
46449 43982
46451 43901
46453 43845
46455 43835
46457 43888
46459 43973
46461 44076
46463 44112
46465 44103
46467 44016
46469 43904
46471 43861
46473 43835
46475 43882
46477 43882
46479 43892
46481 43829
46483 43733
46485 43585
46487 43505
46489 43505
46491 43573
46493 43667
46495 43727
46497 43752
46499 43697
46501 43588
46503 43482
46505 43451
46508 43476
46510 43526
46512 43583
46514 43610
46516 43630
46518 43555
46520 43532
46522 43513
46524 43486
46526 43513
46528 43460
46530 43377
46532 43203
46534 43080
46536 42965
46538 42983
46540 43093
46542 43337
46544 43602
46546 43912
46548 44213
46550 44552
46552 44891
46554 45291
46556 45752
46558 46238
46560 46734
46562 47128
46564 47362
46566 47430
46568 47295
46570 47096
46573 46840
46575 46503
46577 46087
46579 45636
46581 45197
46583 44752
46585 44365
46587 44051
46589 43873
46591 43778
46593 43817
46595 43853
46597 43891
46599 43841
46601 43736
46603 43633
46605 43567
46607 43568
46609 43592
46611 43669
46613 43638
46615 43579
46617 43464
46619 43348
46621 43261
46623 43271
46625 43286
46627 43409
46629 43418
46631 43415
46633 43404
46635 43324
46638 43303
46640 43317
46642 43401
46644 43477
46646 43586
46648 43558
46650 43529
46652 43421
46654 43355
46656 43328
46658 43352
46660 43384
46662 43408
46664 43418
46666 43320
46668 43243
46670 43161
46672 43152
46674 43231
46676 43370
46678 43505
46680 43571
46682 43596
46684 43542
46686 43476
46688 43421
46690 43423
46692 43462
46694 43540
46696 43560
46698 43555
46700 43520
46703 43474
46705 43430
46707 43474
46709 43495
46711 43601
46713 43642
46715 43645
46717 43607
46719 43557
46721 43510
46723 43527
46725 43564
46727 43667
46729 43704
46731 43742
46733 43689
46735 43632
46737 43605
46739 43588
46741 43648
46743 43720
46745 43775
46747 43779
46749 43747
46751 43689
46753 43655
46755 43641
46757 43769
46759 43901
46761 44035
46763 44113
46765 44134
46768 44072
46770 44031
46772 43988
46774 44038
46776 44090
46778 44197
46780 44243
46782 44238
46784 44199
46786 44132
46788 44107
46790 44137
46792 44257
46794 44344
46796 44464
46798 44508
46800 44508
46802 44474
46804 44443
46806 44455
46808 44511
46810 44612
46812 44718
46814 44739
46816 44720
46818 44686
46820 44608
46822 44609
46824 44668
46826 44718
46828 44792
46830 44777
46833 44737
46835 44620
46837 44512
46839 44453
46841 44453
46843 44481
46845 44537
46847 44520
46849 44443
46851 44333
46853 44159
46855 44101
46857 44043
46859 44085
46861 44107
46863 44109
46865 44034
46867 43928
46869 43769
46871 43655
46873 43616
46875 43588
46877 43654
46879 43645
46881 43669
46883 43619
46885 43548
46887 43496
46889 43485
46891 43480
46893 43536
46895 43570
46898 43548
46900 43476
46902 43383
46904 43299
46906 43278
46908 43336
46910 43437
46912 43567
46914 43641
46916 43607
46918 43558
46920 43434
46922 43415
46924 43379
46926 43392
46928 43417
46930 43421
46932 43433
46934 43377
46936 43389
46938 43434
46940 43479
46942 43573
46944 43632
46946 43638
46948 43621
46950 43508
46952 43405
46954 43340
46956 43333
46958 43365
46960 43479
46963 43535
46965 43536
46967 43504
46969 43409
46971 43340
46973 43312
46975 43377
46977 43440
46979 43530
46981 43546
46983 43511
46985 43415
46987 43377
46989 43359
46991 43384
46993 43467
46995 43560
46997 43573
46999 43588
47001 43540
47003 43495
47005 43487
47007 43504
47009 43605
47011 43657
47013 43674
47015 43664
47017 43593
47019 43482
47021 43445
47023 43446
47025 43498
47028 43595
47030 43621
47032 43624
47034 43576
47036 43518
47038 43502
47040 43489
47042 43551
47044 43614
47046 43663
47048 43642
47050 43582
47052 43464
47054 43424
47056 43398
47058 43471
47060 43555
47062 43657
47064 43674
47066 43669
47068 43576
47070 43462
47072 43408
47074 43402
47076 43442
47078 43532
47080 43589
47082 43588
47084 43596
47086 43576
47088 43570
47090 43611
47093 43639
47095 43689
47097 43692
47099 43630
47101 43545
47103 43467
47105 43423
47107 43430
47109 43540
47111 43633
47113 43722
47115 43716
47117 43657
47119 43566
47121 43474
47123 43473
47125 43493
47127 43560
47129 43571
47131 43583
47133 43536
47135 43443
47137 43409
47139 43439
47141 43493
47143 43601
47145 43648
47147 43707
47149 43641
47151 43570
47153 43514
47155 43485
47158 43515
47160 43571
47162 43652
47164 43670
47166 43655
47168 43563
47170 43480
47172 43434
47174 43424
47176 43504
47178 43568
47180 43613
47182 43617
47184 43586
47186 43530
47188 43518
47190 43511
47192 43602
47194 43673
47196 43723
47198 43708
47200 43652
47202 43567
47204 43515
47206 43504
47208 43566
47210 43610
47212 43682
47214 43697
47216 43602
47218 43560
47220 43489
47223 43501
47225 43555
47227 43642
47229 43708
47231 43710
47233 43677
47235 43585
47237 43511
47239 43462
47241 43511
47243 43563
47245 43679
47247 43719
47249 43733
47251 43663
47253 43649
47255 43589
47257 43624
47259 43701
47261 43778
47263 43825
47265 43791
47267 43761
47269 43673
47271 43632
47273 43610
47275 43673
47277 43691
47279 43751
47281 43751
47283 43704
47285 43646
47288 43598
47290 43601
47292 43682
47294 43782
47296 43882
47298 43954
47300 43951
47302 43917
47304 43867
47306 43841
47308 43864
47310 43922
47312 43963
47314 43987
47316 43931
47318 43867
47320 43776
47322 43758
47324 43800
47326 43875
47328 43941
47330 43998
47332 43939
47334 43870
47336 43764
47338 43663
47340 43623
47342 43623
47344 43646
47346 43658
47348 43620
47350 43567
47353 43493
47355 43479
47357 43511
47359 43614
47361 43704
47363 43775
47365 43769
47367 43722
47369 43610
47371 43535
47373 43486
47375 43517
47377 43576
47379 43607
47381 43639
47383 43554
47385 43437
47387 43277
47389 43146
47391 43046
47393 43008
47395 43015
47397 43009
47399 43061
47401 43128
47403 43203
47405 43393
47407 43654
47409 43987
47411 44419
47413 44855
47415 45267
47418 45744
47420 46180
47422 46694
47424 47149
47426 47499
47428 47717
47430 47738
47432 47625
47434 47279
47436 46810
47438 46242
47440 45724
47442 45281
47444 44921
47446 44602
47448 44336
47450 44063
47452 43888
47454 43783
47456 43744
47458 43772
47460 43811
47462 43836
47464 43792
47466 43711
47468 43574
47470 43490
47472 43429
47474 43424
47476 43457
47478 43490
47480 43452
47483 43392
47485 43296
47487 43225
47489 43197
47491 43230
47493 43299
47495 43392
47497 43473
47499 43483
47501 43462
47503 43395
47505 43361
47507 43348
47509 43421
47511 43442
47513 43458
47515 43451
47517 43376
47519 43298
47521 43249
47523 43248
47525 43320
47527 43412
47529 43483
47531 43490
47533 43449
47535 43374
47537 43336
47539 43324
47541 43370
47543 43462
47545 43504
47548 43563
47550 43529
47552 43477
47554 43399
47556 43368
47558 43423
47560 43474
47562 43558
47564 43583
47566 43571
47568 43496
47570 43399
47572 43367
47664 44684
47666 44736
47668 44733
47670 44698
47672 44620
47674 44659
47676 44699
47678 44770
47680 44836
47682 44863
47684 44829
47686 44758
47688 44680
47690 44642
47692 44620
47694 44652
47696 44692
47698 44683
47700 44623
47702 44531
47704 44447
47706 44397
47708 44386
47710 44391
47712 44380
47714 44337
47716 44243
47718 44104
47720 43976
47722 43853
47724 43856
47726 43817
47728 43851
47730 43839
47732 43789
47734 43694
47736 43611
47738 43560
47740 43545
47743 43610
47745 43657
47747 43664
47749 43627
47751 43576
47753 43440
47755 43408
47757 43407
47759 43448
47761 43521
47763 43555
47765 43536
47767 43499
47769 43377
47771 43323
47773 43309
47775 43342
47777 43439
47779 43520
47781 43549
47783 43542
47785 43487
47787 43387
47789 43381
47791 43414
47793 43452
47795 43517
47797 43510
47799 43490
47801 43402
47803 43334
47805 43330
47808 43328
47810 43393
47812 43451
47814 43477
47816 43440
47818 43383
47820 43301
47822 43303
47824 43317
47826 43405
47828 43507
47830 43554
47832 43564
47834 43505
47836 43409
47838 43352
47840 43333
47842 43371
47844 43446
47846 43477
47848 43495
47850 43458
47852 43399
47854 43367
47856 43386
47858 43471
47860 43557
47862 43621
47864 43626
47866 43571
47868 43474
47870 43370
47873 43340
47875 43377
47877 43452
47879 43548
47881 43595
47883 43585
47885 43532
47887 43448
47889 43402
47891 43407
47893 43482
47895 43549
47897 43613
47899 43583
47901 43542
47903 43477
47905 43409
47907 43429
47909 43480
47911 43554
47913 43585
47915 43582
47917 43524
47919 43454
47921 43411
47923 43418
47925 43473
47927 43560
47929 43620
47931 43632
47933 43567
47935 43502
47938 43432
47940 43392
47942 43430
47944 43502
47946 43558
47948 43567
47950 43564
47952 43511
47954 43467
47956 43467
47958 43529
47960 43610
47962 43689
47964 43691
47966 43667
47968 43571
47970 43493
47972 43418
47974 43451
47976 43492
47978 43588
47980 43633
47982 43620
47984 43574
47986 43489
47988 43440
47990 43426
47992 43504
47994 43558
47996 43608
47998 43621
48085 43629
48087 43595
48089 43554
48091 43560
48093 43611
48095 43636
48097 43688
48099 43661
48101 43626
48103 43560
48105 43487
48107 43490
48109 43513
48111 43596
48113 43672
48115 43685
48117 43685
48119 43627
48121 43538
48123 43501
48125 43515
48127 43530
48129 43560
48131 43586
48133 43571
48135 43520
48137 43505
48139 43533
48141 43614
48143 43730
48145 43831
48147 43879
48149 43864
48151 43754
48153 43654
48155 43554
48157 43573
48159 43624
48161 43695
48163 43776
48165 43810
48167 43755
48169 43708
48171 43674
48173 43704
48175 43792
48177 43881
48179 43945
48181 43951
48183 43941
48185 43825
48187 43807
48189 43757
48191 43819
48193 43864
48195 43962
48198 43979
48200 43909
48202 43838
48204 43729
48206 43695
48208 43719
48210 43775
48212 43833
48214 43853
48216 43783
48218 43672
48220 43591
48222 43511
48224 43499
48226 43576
48228 43663
48230 43714
48232 43683
48234 43655
48236 43548
48238 43517
48240 43489
48242 43568
48244 43621
48246 43654
48248 43629
48250 43585
48252 43473
48254 43429
48256 43417
48258 43443
48260 43521
48263 43530
48265 43458
48267 43320
48269 43106
48271 42897
48273 42750
48275 42743
48277 42847
48279 43016
48281 43224
48283 43368
48285 43568
48287 43782
48289 44084
48291 44515
48293 44980
48295 45584
48297 46142
48299 46669
48301 47143
48303 47435
48305 47600
48307 47653
48309 47645
48311 47463
48313 47137
48315 46640
48317 46040
48319 45419
48321 44879
48323 44416
48325 44076
48328 43913
48330 43839
48332 43822
48334 43842
48336 43819
48338 43814
48340 43769
48342 43782
48344 43780
48346 43747
48348 43697
48350 43599
48352 43470
48354 43365
48356 43293
48358 43309
48360 43339
48362 43412
48364 43448
48366 43442
48368 43386
48370 43348
48372 43323
48374 43346
48376 43402
48378 43439
48380 43470
48382 43418
48384 43362
48386 43268
48388 43255
48390 43250
48393 43345
48395 43373
48397 43471
48399 43439
48401 43383
48403 43309
48405 43256
48407 43256
48409 43318
48411 43408
48413 43454
48415 43468
48417 43434
48419 43355
50013 43867
50015 43929
50017 43898
50019 43854
50021 43730
50023 43654
50025 43655
50027 43669
50029 43772
50031 43820
50033 43831
50035 43776
50037 43677
50039 43598
50041 43548
50043 43592
50045 43620
50047 43711
50049 43754
50051 43748
50053 43679
50055 43557
50057 43499
50059 43420
50061 43386
50063 43312
50065 43227
50067 43136
50069 43108
50071 43078
50073 43152
50075 43370
50077 43651
50079 43995
50081 44384
50083 44729
50085 45064
50087 45404
50089 45824
50091 46307
50093 46837
50095 47286
50097 47604
50099 47703
50101 47602
50103 47352
50105 46949
50107 46482
50109 46020
50111 45618
50113 45232
50115 44876
50117 44521
50119 44203
50121 43976
50123 43854
50125 43857
50127 43910
50129 43962
50131 43981
50133 43892
50135 43780
50137 43639
50139 43549
50141 43529
50143 43552
50145 43623
50148 43677
50150 43627
50152 43577
50154 43495
50156 43417
50158 43433
50160 43483
50162 43543
50164 43593
50166 43570
50168 43493
50170 43408
50172 43337
50174 43336
50176 43393
50178 43518
50180 43577
50182 43642
50184 43571
50186 43465
50188 43362
50190 43339
50192 43386
50194 43486
50196 43557
50198 43629
50200 43602
50202 43543
50204 43465
50206 43436
50208 43477
50210 43545
50213 43627
50215 43672
50217 43669
50219 43579
50221 43517
50223 43460
50225 43498
50227 43566
50229 43676
50231 43713
50233 43683
50235 43599
50237 43486
50239 43405
50241 43436
50243 43521
50245 43664
50247 43760
50249 43785
50251 43711
50253 43657
50255 43555
50257 43573
50259 43661
50261 43760
50263 43889
50265 43913
50267 43859
50269 43791
50271 43702
50273 43719
50275 43764
50278 43876
50280 43981
50282 44015
50284 43978
50286 43888
50288 43803
50290 43791
50292 43833
50294 43981
50296 44087
50298 44179
50300 44165
50302 44078
50304 43984
50306 43932
50308 43967
50310 44091
50312 44262
50314 44399
50316 44452
50318 44418
50320 44383
50322 44338
50324 44408
50326 44536
50328 44654
50330 44795
50332 44787
50334 44714
50336 44586
50338 44497
50340 44464
50343 44562
50345 44674
50347 44813
50349 44877
50351 44879
50353 44792
50355 44732
50357 44726
50359 44795
50361 44885
50363 44936
50365 44948
50367 44838
50369 44704
50371 44546
50373 44477
50375 44447
50377 44534
50379 44590
50381 44574
50383 44499
50385 44361
50387 44187
50389 44044
50391 44029
50393 44031
50395 44103
50397 44150
50399 44100
50401 43997
50403 43844
50406 43694
50408 43649
50410 43669
50412 43766
50414 43819
50416 43835
50418 43736
50420 43624
50422 43507
50424 43468
50426 43498
50428 43580
50430 43664
50432 43635
50434 43568
50436 43464
50438 43320
50440 43315
50442 43380
50444 43480
50446 43620
50448 43691
50450 43657
50452 43568
50454 43452
50456 43381
50458 43402
50460 43473
50462 43588
50464 43638
50466 43598
50468 43515
50471 43367
50473 43298
50475 43306
50477 43404
50479 43538
50481 43642
50483 43635
50485 43567
50487 43454
50489 43321
50491 43346
50493 43387
50495 43505
50497 43596
50499 43608
50501 43532
50503 43434
50505 43336
50507 43312
50509 43402
50511 43524
50513 43667
50515 43713
50517 43689
50519 43548
50521 43437
50523 43356
50525 43364
50527 43457
50529 43588
50531 43649
50533 43651
50535 43554
50538 43454
50540 43381
50542 43417
50544 43517
50546 43641
50548 43698
50550 43692
50552 43586
50554 43458
50556 43374
50558 43359
50560 43440
50562 43551
50564 43655
50566 43642
50568 43585
50570 43452
50572 43387
50574 43374
50576 43470
50578 43608
50580 43742
50582 43755
50584 43720
50586 43573
50588 43451
50590 43412
50592 43443
50594 43555
50596 43688
50598 43742
50600 43688
50603 43591
50605 43470
50607 43420
50609 43464
50611 43555
50613 43729
50615 43772
50617 43751
50619 43646
50621 43524
50623 43433
50625 43468
50627 43548
50629 43689
50631 43764
50633 43758
50635 43669
50637 43535
50639 43420
50641 43439
50643 43508
50645 43667
50647 43778
50649 43770
50651 43730
50653 43583
50655 43451
50657 43442
50659 43476
50661 43602
50663 43691
50665 43741
50668 43682
50670 43564
50672 43442
50674 43398
50676 43480
50678 43598
50680 43692
50682 43763
50684 43714
50686 43619
50688 43511
50690 43442
50692 43496
50694 43593
50696 43733
50698 43801
50700 43792
50702 43698
50704 43567
50706 43486
50708 43485
50710 43542
50712 43695
50714 43789
50716 43763
50718 43704
50720 43563
50722 43461
50724 43489
50726 43515
50728 43670
50730 43736
50733 43754
50735 43699
50737 43573
50739 43486
50741 43485
50743 43538
50745 43692
50747 43817
50749 43819
50751 43769
50753 43641
50755 43492
50757 43477
50759 43517
50761 43629
50763 43757
50765 43778
50767 43726
50769 43580
50771 43430
50773 43323
50775 43342
50777 43440
50779 43596
50781 43733
50783 43738
50785 43710
50787 43599
50789 43551
50791 43563
50793 43667
50796 43750
50798 43876
50800 43853
50802 43763
50804 43669
50806 43570
50808 43583
50810 43707
50812 43842
50814 44020
50816 44084
50818 44041
50820 43967
50822 43838
50824 43811
50826 43860
50828 43953
50830 44050
50832 44050
50834 43960
50836 43823
50838 43664
50840 43614
50842 43645
50844 43779
50846 43920
50848 43992
50850 43944
50852 43797
50854 43610
50856 43483
50858 43465
50861 43538
50863 43674
50865 43776
50867 43750
50869 43682
50871 43507
50873 43408
50875 43395
50877 43437
50879 43583
50881 43648
50883 43669
50885 43583
50887 43490
50889 43395
50891 43418
50893 43513
50895 43654
50897 43750
50899 43714
50901 43619
50903 43337
50905 43071
50907 42860
50909 42803
50911 42857
50913 43041
50915 43180
50917 43318
50919 43440
50921 43586
50923 43842
50925 44235
50928 44746
50930 45275
50932 45784
50934 46186
50936 46522
50938 46763
50940 46991
50942 47168
50944 47268
50946 47304
50948 47148
50950 46807
50952 46238
50954 45602
50956 45025
50958 44620
50960 44411
50962 44296
50964 44240
50966 44132
50968 44007
50970 43804
50972 43677
50974 43611
50976 43654
50978 43738
50980 43813
50982 43783
50984 43695
50986 43561
50988 43404
50990 43355
50993 43389
50995 43467
50997 43564
50999 43586
51001 43527
51003 43376
51005 43253
51007 43184
51009 43195
51011 43345
51013 43464
51015 43539
51017 43515
51019 43451
51021 43284
