489468 1024
489472 1024
489476 1024
489480 1024
489484 1024
489488 1024
489492 1024
489496 1024
489500 1024
489504 1024
489508 1024
489512 994
489516 986
489520 1024
489524 1024
489528 986
489532 962
489536 1009
489540 1024
489544 988
489548 955
489552 994
489556 1021
489560 988
489564 945
489568 975
489572 1018
489576 996
489580 949
489584 969
489588 1020
489592 1006
489596 957
489600 968
489604 1022
489608 1018
489612 980
489616 985
489620 1024
489624 1024
489628 1005
489632 1003
489636 1024
489640 1024
489644 1024
489648 1024
489652 1024
489656 1024
489660 1024
489664 1024
489668 1024
489672 1024
489676 1024
489680 1024
489684 1024
489688 1024
489692 1024
489696 1024
489700 1024
489704 1024
489708 1024
489712 1024
489716 1024
489720 1024
489724 1024
489728 1024
489732 1024
489736 1024
489740 1024
489744 1024
489748 1024
489752 1024
489756 1024
489760 1024
489765 1024
489769 1024
489773 1024
489777 1024
489781 1024
489785 1024
489789 1024
489793 1024
489797 1024
489801 1024
489805 1024
489809 1024
489813 1024
489817 1024
489821 1024
489825 1024
489829 1024
489833 1024
489837 1024
489841 1024
489845 1024
489849 1024
489853 1024
489857 1024
489861 1024
489865 1024
489869 1024
489873 1024
489877 1024
489881 1024
489885 1024
490019 1024
490023 1024
490027 1024
490031 1024
490035 1024
490039 1024
490043 1024
490047 1024
490051 1024
490055 1024
490059 1024
490063 1024
490067 1024
490071 1024
490075 1024
490079 1024
490083 1024
490087 1024
490091 1024
490095 1024
490099 1024
490103 1024
490107 1024
490111 1024
490115 1024
490119 1024
490123 1024
490127 1024
490132 1024
490136 1024
490140 1024
490144 1024
490148 1024
490152 1024
490156 1024
490160 1024
490164 1024
490168 1024
490172 1024
490176 1024
490180 1024
490184 1024
490188 1024
490192 1024
490196 1024
490200 1024
490204 1024
490208 1024
490212 1024
490216 1024
490220 1024
490224 1024
490228 1024
490232 1024
490236 1024
490240 1024
490244 1024
490248 1024
490252 1024
490256 1024
490260 1024
490264 1024
490268 1024
490272 1024
490276 1024
490280 1024
490284 1024
490288 1024
490292 1024
490296 1024
490300 1024
490304 1024
490308 1024
490312 1024
490316 1024
490320 1024
490324 1024
490328 1024
490332 1024
490336 1024
490340 1024
490344 1024
490348 1024
490352 1024
490356 1024
490360 1024
490364 1024
490368 1024
490372 1024
490376 1024
490380 1024
490384 1024
490388 1024
490392 1024
490396 1024
490400 1024
490404 1024
490408 1024
490412 1024
490416 1024
490420 1024
490424 1024
490428 1024
490432 1024
490436 1024
490440 1024
490444 1024
490448 1024
490452 1024
490456 1024
490460 1024
490464 1024
490468 1024
490472 1024
490476 1024
490480 1024
490484 1024
490489 1024
490493 1024
490497 1024
490501 1024
490505 1024
490509 1024
490513 1024
490517 1024
490521 1024
490525 1024
490529 1024
490533 1024
490537 1024
490541 1024
490545 1024
490549 1024
490553 1024
490557 1024
490561 1024
490565 1024
490569 1024
490573 1024
490577 1024
490581 1024
490585 1024
490589 1024
490593 1024
490597 1024
490601 1024
490605 1024
490609 1024
490613 1024
490617 1024
490621 1024
490625 1024
490629 1024
490633 1024
490637 1024
490641 1024
490645 1024
490649 1024
490653 1024
490657 1024
490661 1024
490665 1024
490669 1024
490673 1024
490677 1024
490681 1024
490685 1024
490689 1024
490693 1024
490697 1024
490701 1024
490705 1024
490709 1024
490713 1024
490717 1024
490721 1024
490725 1024
490729 1024
490733 1024
490737 946
490741 798
490745 645
490749 601
490753 643
490757 638
490761 545
490765 478
490769 494
490773 490
490777 403
490781 328
490785 337
490789 344
490793 267
490797 182
490801 181
490805 201
490809 135
490813 37
490817 18
490821 42
490825 2
490830 2
490834 2
490838 2
490842 2
490846 2
490850 2
490854 2
490858 2
490862 2
490866 2
490870 2
490874 2
490878 2
490882 2
490886 2
490890 2
490894 2
490898 2
490902 2
490906 2
490910 2
490914 2
490918 2
490922 2
490926 2
490930 2
490934 2
490938 2
490942 1
490946 2
490950 2
490954 2
490958 2
490962 2
490966 2
490970 2
490974 2
490978 2
490982 2
490986 2
490990 2
490994 2
490998 2
491002 2
491006 2
491010 2
491014 2
491018 2
491022 2
491026 2
491030 2
491034 2
491038 2
491042 2
491046 2
491050 2
491054 2
491058 2
491063 2
491067 2
491071 2
491075 2
491079 2
491083 2
491087 2
491091 2
491095 2
491099 2
491103 2
491107 2
491111 2
491115 2
491119 2
491123 2
491127 2
491131 2
491135 2
491139 2
491143 2
491147 2
491151 2
491155 1
491159 2
491163 2
491167 2
491171 2
491175 2
491179 2
491183 2
491187 2
491191 2
491195 2
491199 2
491203 2
491207 2
491211 2
491215 2
491219 2
491223 2
491227 2
491231 2
491235 2
491239 2
491243 2
491247 2
491251 2
491255 2
491259 2
491263 2
491267 2
491271 2
491275 2
491279 2
491283 2
491287 2
491291 2
491295 2
491299 2
491303 2
491307 2
491311 2
491315 2
491319 2
491323 2
491327 2
491331 2
491335 2
491339 2
491343 2
491347 2
491351 2
491355 2
491359 2
491363 2
491367 2
491371 2
491375 2
491379 2
491383 2
491387 2
491391 2
491396 2
491400 2
491404 2
491408 2
491412 2
491416 2
491420 2
491424 2
491428 2
491432 2
491436 2
491440 2
491444 2
491448 2
491452 2
491456 2
491460 2
491464 2
491468 2
491472 2
491476 2
491480 2
491484 2
491488 2
491492 2
491496 2
491500 2
491504 2
491508 2
491512 2
491516 2
491520 2
491524 2
491528 2
491532 2
491536 2
491540 2
491544 2
491548 2
491552 2
491556 2
491560 2
491564 2
491568 33
491572 401
491576 684
491580 746
491584 739
491588 745
491592 700
491596 630
491600 645
491604 717
491608 715
491612 632
491616 600
491620 636
491624 629
491628 544
491632 490
491636 522
491640 528
491644 448
491648 377
491652 397
491656 411
491660 333
491664 247
491668 248
491672 270
491677 208
491681 111
491685 100
491689 130
491693 85
491697 2
491701 2
491705 2
491709 2
491713 2
491717 2
491721 2
491725 2
491729 2
491733 2
491737 2
491741 2
491745 2
491749 2
491753 2
491757 2
491761 2
491765 2
491770 1
491773 2
491777 2
491781 2
491785 2
491790 2
491794 2
491798 2
491802 2
491806 2
491810 2
491814 2
491818 2
491822 2
491826 2
491830 2
491834 2
491838 2
491842 2
491846 2
491850 2
491854 2
491858 2
491862 2
491866 2
491870 2
491874 2
491878 2
491882 2
491886 2
491890 2
491894 2
491898 2
491902 2
491906 2
491910 2
491914 2
491918 2
491922 2
491926 2
491930 2
491934 2
491938 2
491942 2
491946 2
491950 2
491954 2
491958 2
491962 2
491966 2
491970 2
491974 2
491978 2
491982 2
491986 2
491990 2
491994 2
491998 2
492002 2
492006 2
492010 2
492014 2
492018 2
492022 2
492026 2
492030 2
492034 2
492038 2
492042 2
492046 2
492050 2
492054 2
492058 2
492062 2
492066 2
492070 2
492074 2
492078 2
492082 2
492086 2
492090 2
492094 2
492098 2
492102 2
492106 2
492110 2
492114 2
492118 2
492122 2
492126 2
492130 2
492134 2
492138 2
492142 2
492146 2
492150 2
492154 2
492158 2
492162 2
492167 2
492171 2
492175 2
492179 2
492183 2
492187 2
492191 2
492195 2
492199 2
492203 2
492207 2
492211 2
492215 2
492219 2
492223 2
492227 2
492231 2
492235 2
492239 2
492243 2
492247 2
492251 2
492255 2
492259 2
492263 2
492267 2
492271 2
492275 2
492279 2
492283 2
492287 2
492291 2
492295 2
492299 2
492303 1
492307 2
492311 2
492315 2
492319 2
492323 2
492327 2
492331 2
492335 2
492339 2
492343 2
492347 2
492351 2
492355 2
492359 2
492363 2
492367 2
492371 2
492375 2
492379 2
492384 2
492388 2
492392 2
492396 2
492400 2
492404 2
492408 2
492412 2
492416 2
492420 2
492424 2
492428 2
492432 2
492436 2
492440 2
492444 2
492448 2
492452 2
492456 2
492460 2
492464 2
492468 2
492472 2
492476 2
492480 2
492484 2
492488 2
492492 590
492496 1024
492500 1024
492504 1024
492508 1024
492512 1024
492516 1024
492520 1024
492524 1024
492528 1024
492532 1024
492536 1024
492540 1024
492544 1024
492548 1024
492552 1024
492556 1024
492560 1024
492564 1024
492568 1024
492572 1024
492576 1024
492580 1024
492584 1024
492588 1024
492592 1024
492596 1024
492600 1024
492604 1024
492608 1024
492612 1024
492616 1024
492620 1024
492624 1024
492629 1024
492633 1024
492637 1024
492641 1024
492645 1024
492649 1024
492653 1024
492657 1024
492661 1024
492665 1024
492669 1024
492673 1024
492677 1024
492681 1024
492685 1024
492689 1024
492693 1024
492697 1024
492701 1024
492705 1024
492709 1024
492713 1024
492717 1024
492721 1024
492725 1024
492729 1024
492733 1024
492737 1024
492741 1024
492745 1024
492749 1024
492753 1024
492757 1024
492761 1024
492765 1024
492769 1024
492773 1024
492777 1024
492781 1024
492785 1024
492789 1024
492793 1024
492797 1024
492801 999
492805 989
492809 933
492813 846
492817 825
492821 878
492825 880
492829 802
492833 762
492837 800
492841 811
492845 742
492849 690
492853 728
492857 753
492861 690
492865 628
492869 651
492873 685
492877 636
492881 568
492885 580
492889 621
492893 588
492897 516
492901 524
492905 578
492909 556
492913 478
492917 460
492921 508
492925 505
492930 428
492933 401
492937 454
492941 465
492945 391
492949 349
492953 391
492957 415
492961 353
492965 297
492969 328
492973 367
492977 319
492981 254
492986 269
492990 307
492994 262
492998 195
493002 236
493006 307
493010 301
493014 262
493018 302
493022 375
493026 355
493030 267
493034 226
493038 243
493042 211
493046 125
493050 104
493054 168
493058 182
493062 108
493066 74
493070 123
493074 154
493078 94
493082 48
493086 85
493090 121
493094 72
493098 19
493103 49
493107 96
493111 60
493115 3
493119 19
493123 69
493127 48
493131 2
493135 2
493139 39
493143 31
493147 2
493151 2
493155 26
493159 27
493163 2
493167 2
493171 2
493175 2
493179 2
493183 2
493187 2
493191 2
493195 2
493199 2
493203 2
493207 1
493211 2
493215 2
493219 2
493223 2
493227 2
493231 2
493235 2
493239 2
493243 2
493247 2
493251 2
493255 2
493259 2
493263 2
493267 2
493271 2
493275 2
493279 2
493283 2
493287 2
493291 2
493295 2
493299 2
493303 2
493307 2
493311 2
493315 2
493319 2
493323 2
493327 2
493331 2
493335 2
493339 2
493343 2
493347 2
493351 2
493355 2
493359 2
493363 2
493367 2
493371 2
493375 2
493379 2
493383 2
493387 2
493391 2
493395 2
493399 2
493403 2
493408 2
493412 2
493416 2
493420 2
493424 2
493428 2
493432 2
493436 2
493440 2
493444 2
493448 2
493452 2
493456 2
493460 2
493464 2
493468 2
493472 2
493476 2
493480 2
493484 2
493488 2
493492 2
493496 2
493500 2
493504 2
493508 2
493512 2
493516 2
493520 2
493524 2
493528 2
493532 2
493536 2
493540 2
493544 2
493548 2
493552 2
493556 2
493560 2
493564 2
493568 2
493572 2
493576 2
493580 2
493584 2
493588 2
493592 2
493596 2
493600 2
493604 2
493609 1
493613 2
493617 1
493621 2
493625 2
493629 2
493633 2
493637 2
493641 2
493645 2
493649 2
493653 2
493657 2
493661 2
493665 2
493669 2
493673 2
493677 2
493681 2
493685 2
493689 2
493693 2
493697 2
493701 2
493705 2
493709 2
493713 2
493717 2
493721 2
493725 2
493729 2
493733 2
493737 2
493741 2
493745 2
493749 2
493753 2
493757 2
493761 2
493765 2
493769 2
493773 2
493777 2
493781 2
493785 2
493789 2
493793 2
493797 2
493801 2
493805 2
493809 2
493813 2
493817 1
493821 2
493825 2
493829 2
493833 2
493837 2
493841 2
493845 2
493849 2
493853 2
493857 2
493861 2
493865 2
493869 2
493873 2
493877 2
493882 2
493886 2
493890 2
493894 2
493898 2
493902 2
493906 2
493910 2
493914 2
493918 2
493922 1
493926 2
493930 2
493934 2
493938 2
493942 2
493946 2
493950 2
493954 2
493958 2
493962 2
493966 2
493970 2
493974 2
493978 2
493982 2
493986 2
493990 2
493994 2
493998 2
494002 2
494006 2
494010 2
494014 2
494018 2
494022 2
494026 2
494030 2
494034 2
494038 2
494042 2
494046 2
494050 2
494054 2
494058 2
494062 2
494066 2
494070 2
494074 2
494078 2
494082 2
494086 2
494090 2
494094 2
494098 2
494102 2
494106 2
494110 2
494114 2
494118 2
494122 2
494126 2
494130 2
494134 2
494138 2
494142 2
494146 2
494150 2
494154 2
494158 2
494162 2
494166 2
494170 2
494174 2
494178 2
494182 2
494186 2
494190 2
494194 2
494198 2
494202 2
494206 2
494210 2
494214 2
494218 2
494222 2
494227 2
494231 2
494235 2
494239 2
494243 2
494247 2
494251 2
494255 2
494259 2
494263 2
494267 1
494271 2
494275 2
494279 2
494283 2
494287 2
494291 2
494295 2
494299 2
494303 2
494307 2
494311 2
494315 2
494319 2
494323 2
494327 2
494331 2
494335 2
494339 2
494343 2
494347 2
494351 2
494355 2
494359 2
494363 2
494367 2
494371 2
494375 2
494379 2
494383 2
494387 2
494391 2
494395 2
494399 2
494403 2
494407 2
494411 2
494415 2
494419 2
494423 2
494427 2
494432 2
494436 2
494440 2
494444 2
494448 2
494452 2
494456 2
494460 2
494464 2
494468 2
494472 2
494476 2
494480 2
494484 2
494488 2
494492 2
494496 2
494500 2
494504 2
494508 2
494512 2
494516 2
494520 2
494524 2
494528 2
494532 2
494536 2
494540 2
494544 2
494548 2
494552 2
494556 2
494560 2
494564 2
494568 2
494572 2
494576 2
494580 2
494584 2
494588 2
494592 2
494596 2
494600 2
494604 2
494608 2
494612 2
494616 2
494620 2
494624 2
494628 2
494632 2
494636 2
494640 2
494644 2
494648 2
494652 2
494656 2
494660 2
494664 2
494668 2
494672 2
494676 2
494680 2
494684 2
494688 2
494692 2
494696 2
494701 2
494705 2
494709 2
494713 2
494717 2
494721 2
494725 2
494729 2
494733 2
494737 2
494741 2
494745 2
494749 2
494753 2
494757 2
494761 2
494765 2
494769 2
494773 2
494777 2
494781 2
494785 2
494789 2
494793 2
494797 2
494801 2
494805 2
494809 2
494813 2
494817 2
494821 2
494825 2
494829 2
494833 2
494837 2
494841 2
494845 2
494849 2
494853 2
494857 2
494861 2
494865 2
494869 2
494873 2
494877 2
494881 2
494885 2
494889 2
494893 2
494897 2
494901 2
494905 2
494909 2
494913 2
494917 2
494921 2
494925 2
494929 1
494933 2
494937 2
494941 2
494945 2
494949 2
494953 2
494957 2
494961 2
494965 2
494969 2
494973 2
494977 2
494981 2
494985 2
494989 2
494993 2
494997 2
495001 2
495005 2
495009 2
495013 2
495018 2
495022 2
495026 2
495030 2
495034 2
495038 2
495042 2
495046 2
495050 2
495054 2
495058 1
495062 2
495066 2
495070 2
495074 2
495078 2
495082 2
495086 2
495090 2
495094 2
495098 2
495102 2
495106 2
495110 2
495114 2
495118 2
495122 2
495126 2
495130 2
495134 2
495138 2
495142 2
495146 2
495150 2
495154 2
495158 2
495162 2
495166 2
495170 2
495174 2
495178 2
495182 2
495186 2
495190 2
495194 2
495198 2
495202 2
495206 2
495210 2
495214 2
495218 2
495222 2
495226 2
495230 2
495234 2
495238 2
495242 2
495246 2
495250 2
495254 2
495258 2
495262 2
495266 2
495270 2
495274 2
495278 2
495282 2
495286 2
495290 2
495294 2
495298 2
495302 2
495306 2
495310 2
495314 2
495318 2
495322 2
495326 2
495330 2
495335 2
495339 2
495343 2
495347 2
495351 2
495355 2
495359 2
495363 2
495367 2
495371 2
495375 2
495379 2
495383 2
495387 2
495391 2
495395 2
495399 2
495403 2
495407 2
495411 2
495415 2
495419 2
495423 2
495427 2
495431 2
495435 2
495439 2
495443 2
495447 2
495451 2
495455 2
495459 2
495463 2
495467 2
495471 2
495475 2
495479 2
495483 2
495487 2
495491 2
495495 2
495499 2
495503 2
495507 18
495511 32
495515 39
495519 110
495523 204
495527 196
495531 112
495535 77
495539 100
495543 78
495547 8
495551 7
495555 72
495559 93
495563 36
495567 12
495571 67
495575 98
495579 46
495583 10
495587 63
495591 110
495595 70
495599 40
495603 85
495607 141
495611 103
495616 64
495619 110
495623 192
495627 181
495631 110
495635 109
495639 166
495643 157
495647 92
495651 94
495655 162
495659 171
495664 108
495668 93
495672 157
495676 180
495680 117
495684 88
495688 144
495692 184
495696 136
495700 100
495704 150
495708 197
495712 161
495716 109
495720 150
495724 213
495728 195
495732 144
495736 170
495740 235
495744 229
495748 173
495752 184
495756 254
495760 265
495764 209
495768 206
495772 271
495776 291
495780 233
495784 208
495788 264
495792 297
495796 242
495800 202
495804 246
495808 284
495812 236
495816 189
495820 228
495824 282
495828 250
495832 197
495836 223
495840 284
495844 268
495848 209
495852 223
495856 284
495860 280
495864 216
495868 213
495872 276
495876 290
495880 232
495884 218
495888 282
495892 308
495896 253
495900 221
495904 274
495908 313
495912 264
495916 221
495920 266
495924 317
495928 283
495932 231
495936 264
495940 322
495944 301
495948 243
495952 262
495956 327
495960 319
495964 257
495968 262
495972 327
495976 330
495980 266
495984 254
495988 317
495992 339
495996 281
496000 256
496004 316
496008 349
496012 297
496017 256
496021 302
496025 343
496029 302
496033 254
496037 291
496041 345
496045 316
496049 259
496053 283
496057 343
496061 327
496065 266
496069 274
496073 340
496077 341
496081 279
496085 276
496089 339
496093 350
496097 291
496101 272
496105 334
496109 363
496113 309
496117 276
496121 328
496125 366
496129 324
496133 284
496137 329
496141 379
496145 348
496149 296
496153 322
496157 376
496161 350
496165 289
496169 304
496173 373
496177 369
496181 308
496185 307
496189 365
496193 367
496197 304
496201 291
496205 353
496209 375
496213 318
496217 291
496221 345
496225 375
496229 320
496233 278
496237 327
496241 374
496245 334
496249 284
496253 320
496257 374
496261 340
496265 284
496269 310
496273 369
496278 343
496281 281
496285 301
496289 380
496293 401
496297 369
496301 396
496305 488
496310 512
496314 442
496318 393
496322 406
496326 391
496330 312
496334 277
496338 338
496342 380
496346 329
496350 281
496354 318
496358 361
496362 322
496366 270
496370 302
496374 360
496378 337
496382 277
496386 294
496390 355
496394 344
496398 283
496402 288
496406 346
496410 348
496414 284
496418 276
496422 340
496426 360
496430 301
496434 276
496438 330
496442 362
496446 309
496450 272
496454 321
496458 367
496462 328
496466 281
496470 318
496474 374
496478 346
496482 294
496486 321
496490 384
496494 368
496498 308
496502 319
496506 382
496510 384
496514 326
496518 325
496522 389
496526 401
496530 341
496534 326
496538 387
496542 415
496546 363
496550 334
496554 386
496558 428
496562 379
496566 337
496570 378
496574 430
496578 391
496582 338
496586 367
496590 425
496594 394
496598 328
496602 338
496606 397
496610 390
496614 330
496618 330
496622 388
496626 392
496630 330
496634 318
496638 379
496642 400
496646 340
496650 310
496654 365
496658 399
496663 350
496667 312
496671 357
496675 404
496679 367
496683 322
496687 362
496691 422
496695 393
496699 337
496703 357
496707 415
496711 401
496715 339
496719 349
496723 414
496727 414
496731 352
496735 344
496739 405
496743 420
496747 356
496751 334
496755 390
496759 420
496763 365
496767 330
496771 381
496775 426
496779 376
496783 329
496787 369
496791 418
496795 382
496799 328
496803 355
496807 413
496811 393
496815 336
496819 348
496823 411
496827 406
496831 348
496835 346
496839 408
496843 416
496847 355
496851 340
496855 399
496859 423
496863 361
496867 330
496871 385
496875 424
496879 373
496883 330
496887 373
496891 416
496895 378
496899 331
496903 367
496907 426
496911 396
496915 339
496919 358
496923 423
496927 409
496931 356
496935 365
496939 429
496943 425
496947 353
496951 340
496955 400
496959 416
496963 357
496967 337
496971 394
496975 427
496979 368
496983 329
496987 375
496992 412
496996 363
497000 321
497004 365
497008 411
497012 374
497016 326
497020 360
497024 414
497028 388
497032 332
497036 353
497040 415
497044 409
497048 351
497052 364
497056 434
497060 438
497064 374
497068 364
497072 428
497076 446
497080 382
497084 361
497088 415
497092 449
497096 396
497100 360
497104 409
497108 457
497112 409
497116 360
497120 391
497124 440
497128 404
497132 351
497136 378
497140 439
497144 415
497148 351
497152 360
497156 426
497160 420
497164 349
497168 334
497172 382
497176 392
497180 343
497184 346
497188 438
497192 495
497197 466
497201 471
497205 537
497209 562
497213 481
497217 402
497221 416
497225 445
497229 396
497233 353
497237 387
497241 436
497245 392
497249 329
497253 350
497257 408
497261 392
497265 333
497269 342
497273 401
497277 397
497281 337
497285 333
497289 393
497293 404
497297 343
497301 324
497305 380
497309 403
497313 348
497317 317
497321 369
497325 408
497329 363
497333 322
497337 366
497341 415
497345 380
497349 329
497353 360
497357 416
497361 394
497365 338
497369 355
497373 418
497377 411
497381 349
497385 354
497389 423
497393 436
497397 375
497401 367
497405 433
497409 453
497413 390
497417 365
497421 427
497425 461
497429 406
497433 369
497437 415
497441 464
497445 426
497449 375
497453 412
497457 468
497461 438
497465 377
497469 400
497473 462
497477 448
497481 381
497485 386
497489 447
497493 440
497497 367
497501 356
497506 415
497510 428
497514 363
497518 340
497522 396
497526 426
497530 367
497534 334
497538 385
497542 426
497546 374
497550 326
497554 366
497558 415
497562 381
497566 329
497570 360
497574 417
497578 398
497582 340
497586 354
497590 415
497594 410
497598 364
497602 389
497606 466
497610 456
497614 379
497618 368
497622 429
497626 440
497630 376
497634 357
497638 415
497642 445
497646 384
497650 351
497654 403
497658 446
497662 394
497666 350
497670 392
497674 442
497678 402
497682 349
497686 378
497690 436
497694 408
497699 352
497703 369
497707 434
497711 423
497715 357
497719 361
497723 428
497727 432
497731 366
497735 354
497739 415
497743 438
497747 377
497751 353
497755 408
497759 445
497763 391
497767 354
497771 401
497775 446
497779 398
497783 349
497787 385
497791 440
497795 406
497799 351
497803 374
497807 434
497811 410
497815 349
497819 360
497823 424
497827 421
497831 355
497835 349
497839 412
497843 428
497847 364
497851 346
497855 406
497859 439
497863 384
497867 353
497871 400
497875 439
497879 390
497883 349
497887 393
497891 448
497895 410
497899 357
497903 386
497907 441
497911 414
497915 355
497919 368
497923 433
497927 421
497931 354
497935 353
497939 414
497943 422
497947 356
497951 343
497955 404
497959 432
497963 374
497967 344
497971 397
497975 435
497979 382
497983 343
497987 387
497991 434
497995 388
497999 334
498003 361
498007 408
498011 375
498016 312
498020 339
498024 402
498028 384
498032 321
498036 329
498040 388
498044 382
498048 318
498052 307
498056 355
498060 355
498064 297
498068 294
498072 375
498076 428
498080 396
498084 393
498088 468
498092 500
498096 432
498100 344
498104 346
498108 366
498112 317
498116 264
498120 301
498124 354
498128 326
498132 261
498136 274
498140 333
498144 320
498148 255
498152 256
498156 318
498160 319
498164 256
498168 243
498172 302
498176 319
498180 258
498184 247
498188 316
498192 348
498196 286
498200 237
498204 282
498208 328
498212 289
498216 242
498221 283
498225 327
498229 289
498233 235
498237 265
498241 320
498245 298
498249 242
498253 257
498257 318
498261 306
498265 245
498269 262
498273 349
498277 360
498281 292
498285 268
498289 322
498293 338
498297 274
498301 247
498305 302
498309 337
498313 288
498317 252
498321 303
498325 351
498329 310
498333 261
498337 298
498341 354
498345 326
498349 272
498353 297
498357 355
498361 340
498365 278
498369 285
498373 340
498377 333
498381 266
498385 255
498389 315
498393 327
498397 265
498401 242
498405 296
498409 322
498413 266
498417 230
498421 278
498426 317
498429 267
498433 234
498437 284
498441 328
498445 282
498449 229
498454 262
498458 318
498462 289
498466 233
498470 256
498474 315
498478 294
498482 229
498486 237
498490 302
498494 301
498498 236
498502 228
498506 290
498510 301
498514 240
498518 220
498522 277
498526 306
498530 249
498534 217
498538 267
498542 309
498546 266
498550 224
498554 264
498558 309
498562 272
498566 221
498570 252
498574 306
498578 281
498582 222
498586 243
498590 308
498594 301
498598 234
498602 229
498606 289
498610 296
498614 235
498618 223
498622 283
498626 302
498630 238
498634 209
498638 266
498642 303
498646 253
498650 214
498654 259
498658 306
498662 265
498666 214
498670 245
498674 298
498678 272
498682 218
498686 238
498690 297
498694 283
498698 221
498702 229
498706 292
498710 294
498714 233
498718 228
498722 293
498726 309
498730 250
498734 232
498738 290
498742 317
498746 261
498750 228
498754 281
498758 320
498762 271
498766 224
498770 262
498774 314
498778 278
498782 221
498786 246
498791 302
498795 282
498799 225
498803 241
498807 303
498811 298
498815 242
498819 248
498823 319
498827 332
498831 272
498835 257
498839 320
498843 346
498847 292
498851 264
498855 318
498859 349
498863 297
498867 255
498871 296
498875 337
498879 294
498883 241
498887 271
498891 327
498895 303
498899 248
498903 269
498907 328
498911 309
498915 242
498919 247
498923 320
498927 341
498931 313
498935 338
498939 427
498943 458
498947 397
498951 357
498955 387
498959 381
498963 298
498967 244
498971 286
498975 329
498979 291
498983 245
498987 278
498991 325
498995 289
498999 236
499003 262
499007 322
499011 308
499015 249
499019 268
499023 334
499027 330
499031 267
499035 265
499040 338
499044 337
499048 277
499052 276
499056 338
499060 346
499064 286
499068 267
499072 326
499076 346
499080 291
499084 265
499088 325
499092 365
499096 319
499100 277
499104 326
499108 375
499112 338
499116 284
499120 315
499124 372
499128 349
499132 293
499136 315
499140 378
499144 368
499148 310
499152 320
499156 387
499160 394
499164 334
499168 326
499172 387
499176 406
499180 349
499184 331
499188 396
499192 433
499196 381
499200 348
499204 396
499208 441
499212 394
499216 344
499220 377
499224 429
499228 393
499232 334
499236 355
499240 412
499245 387
499249 321
499252 338
499256 403
499260 398
499264 331
499268 321
499272 381
499277 393
499281 336
499285 316
499289 372
499293 394
499297 339
499301 310
499305 367
499309 408
499313 361
499317 316
499321 356
499325 406
499329 375
499333 322
499337 349
499341 401
499345 376
499349 318
499353 333
499357 392
499361 382
499365 321
499369 327
499373 386
499377 386
499381 324
499385 317
499389 385
499393 408
499397 351
499401 324
499405 375
499409 404
499413 356
499417 322
499421 369
499425 414
499429 375
499433 331
499437 370
499441 425
499445 388
499449 328
499453 357
499457 415
499461 397
499465 341
499469 358
499473 421
499477 411
499481 350
499485 353
499489 413
499493 416
499497 355
499501 341
499505 399
499509 415
499513 357
499517 330
499522 387
499526 428
499530 377
499534 337
499538 379
499542 424
499546 381
499550 336
499554 369
499558 426
499562 396
499566 341
499570 364
499574 425
499578 405
499582 348
499586 358
499590 426
499594 427
499599 365
499603 384
499607 445
499611 429
499615 360
499619 358
499623 422
499627 428
499631 366
499635 355
499639 416
499643 444
499647 386
499651 364
499655 424
499659 457
499663 404
499667 368
499671 415
499675 461
499679 415
499683 366
499687 401
499691 461
499695 436
499699 376
499703 394
499707 451
499711 430
499715 364
499719 369
499723 438
499727 441
499731 379
499735 374
499739 438
499743 456
499747 394
499751 375
499755 437
499759 461
499763 396
499767 363
499771 427
499775 484
499779 461
499783 446
499787 516
499791 591
499795 574
499799 519
499803 528
499807 555
499811 500
499815 415
499819 414
499823 471
499827 463
499831 396
499835 391
499839 450
499843 457
499847 393
499851 381
499855 449
499859 473
499863 413
499867 384
499871 442
499875 480
499879 428
499883 381
499887 428
499892 476
499896 441
499900 391
499904 428
499908 483
499912 460
499916 401
499920 424
499924 484
499928 474
499932 413
499936 426
499940 489
499944 495
499948 436
499952 428
499956 489
499960 508
499964 449
499968 427
499972 483
499976 509
499980 457
499984 423
499988 475
499992 518
499996 477
500000 435
500004 475
500008 526
500012 496
500016 442
500020 473
500024 535
500028 521
500032 466
500036 480
500040 542
500044 536
500048 476
500052 476
500056 541
500060 553
500064 490
500068 474
500072 532
500076 552
500080 489
500084 456
500088 504
500092 535
500096 484
500100 439
500104 478
500108 522
500112 485
500116 436
500120 464
500124 514
500128 486
500132 427
500136 446
500140 505
500144 492
500148 428
500152 430
500156 489
500160 494
500164 433
500168 424
500172 484
500176 500
500180 442
500184 414
500188 472
500192 501
500196 449
500200 411
500204 461
500208 498
500212 452
500216 401
500220 439
500224 486
500228 453
500232 396
500236 424
500240 483
500245 466
500249 404
500253 414
500257 478
500261 475
500265 414
500269 428
500273 490
500278 483
500282 428
500286 440
500290 499
500294 496
500298 433
500302 425
500306 487
500310 502
500314 442
500318 416
500322 475
500326 498
500330 438
500334 396
500338 447
500342 487
500346 448
500350 402
500354 447
500358 495
500362 461
500366 406
500370 440
500374 502
500378 488
500382 433
500386 442
500390 498
500394 488
500398 427
500402 428
500406 490
500410 501
500414 445
500418 429
500422 487
500426 509
500430 456
500434 429
500438 484
500442 518
500446 472
500450 435
500454 480
500458 523
500462 482
500466 429
500470 461
500474 514
500478 485
500482 424
500486 440
500490 498
500494 490
500498 436
500502 444
500506 507
500510 509
500514 447
500518 437
500522 498
500526 521
500530 466
500534 444
500538 498
500542 528
500546 476
500550 441
500554 487
500558 529
500562 487
500566 441
500570 475
500574 523
500578 492
500582 438
500587 462
500591 516
500595 495
500599 435
500603 446
500607 505
500611 496
500615 426
500619 408
500623 471
500627 495
500631 457
500635 468
500639 554
500643 608
500647 582
500651 568
500655 614
500659 628
500663 544
500667 468
500671 485
500675 521
500679 483
500683 437
500687 468
500691 521
500695 495
500699 437
500703 454
500707 516
500711 507
500715 449
500719 454
500723 518
500727 523
500731 462
500735 448
500739 504
500743 521
500747 465
500751 444
500755 501
500759 535
500763 487
500767 452
500771 502
500775 549
500779 512
500783 469
500787 507
500791 561
500795 536
500799 486
500803 511
500807 570
500811 555
500815 499
500819 511
500823 576
500827 579
500831 521
500835 517
500839 580
500843 596
500847 541
500851 523
500855 581
500859 608
500863 555
500867 525
500871 577
500875 615
500879 571
500883 531
500887 572
500891 624
500895 594
500899 546
500903 577
500907 633
500911 610
500915 553
500919 562
500923 620
500928 610
500931 553
500935 549
500939 602
500943 602
500947 537
500952 517
500956 569
500960 586
500964 529
500968 501
500972 553
500976 582
500980 528
500984 486
500988 529
500992 572
500996 534
501000 486
501004 518
501008 569
501012 540
501016 484
501020 506
501024 567
501028 554
501032 494
501036 499
501040 556
501044 556
501048 497
501052 493
501056 554
501060 570
501064 516
501068 496
501072 553
501076 583
501081 521
501085 507
501089 569
501093 594
501097 540
501101 509
501105 560
501109 597
501113 552
501117 507
501121 545
501125 590
501129 554
501133 502
501137 532
501141 586
501145 567
501149 510
501153 525
501157 585
501161 576
501165 516
501169 517
501173 578
501177 582
501181 522
501185 508
501189 567
501193 586
501197 531
501201 506
501205 559
501209 594
501213 546
501217 510
501221 555
501225 600
501229 561
501233 514
501237 546
501241 597
501245 567
501249 519
501253 546
501257 606
501261 591
501265 528
501269 534
501273 594
501277 596
501281 535
501285 528
501289 586
501293 601
501297 546
501301 531
501305 588
501309 613
501313 558
501317 525
501321 572
501325 613
501329 574
501333 535
501337 576
501341 622
501345 588
501349 536
501353 567
501357 624
501361 604
501365 546
501369 561
501373 625
501377 620
501381 559
501385 555
501389 615
501393 622
501397 564
501401 550
501405 608
501409 633
501413 580
501417 553
501421 609
501426 646
501430 600
501434 560
501438 605
501442 649
501446 614
501450 567
501454 601
501458 653
501462 629
501466 573
501470 593
501474 649
501478 634
501482 572
501486 577
501490 638
501494 642
501498 581
501502 571
501506 628
501510 645
501514 589
501518 567
501522 618
501526 641
501530 588
501534 560
501538 624
501542 686
501546 673
501550 657
501554 729
501558 807
501562 781
501566 708
501570 689
501574 710
501578 665
501582 596
501586 607
501590 675
501594 674
501598 617
501602 613
501606 667
501610 676
501614 615
501618 595
501622 649
501626 674
501630 622
501634 594
501638 644
501642 680
501646 634
501650 595
501654 638
501658 688
501662 655
501666 606
501670 637
501674 692
501678 669
501682 614
501686 630
501690 691
501694 685
501698 627
501702 633
501706 693
501710 697
501714 638
501718 629
501722 691
501726 712
501730 653
501734 633
501738 689
501742 724
501746 672
501750 637
501755 687
501759 735
501763 693
501767 652
501771 693
501775 754
501779 730
501783 681
501787 714
501791 774
501795 760
501799 703
501803 715
501807 777
501811 777
501815 720
501819 716
501823 776
501827 786
501831 725
501835 702
501839 754
501843 774
501847 715
501851 675
501855 725
501859 758
501863 709
501867 661
501871 704
501875 749
501879 712
501883 656
501887 686
501891 746
501895 724
501899 663
501903 680
501907 745
501911 737
501915 675
501919 679
501923 744
501927 748
501931 685
501935 672
501939 736
501943 759
501947 706
501951 678
501955 738
501959 772
501963 724
501967 682
501971 730
501975 773
501979 734
501983 684
501987 724
501991 777
501995 749
501999 691
502003 718
502007 777
502011 765
502015 708
502019 717
502023 778
502027 778
502031 718
502035 712
502039 774
502043 787
502047 727
502051 708
502055 764
502059 793
502063 741
502067 708
502071 756
502075 795
502079 751
502083 708
502087 749
502091 800
502095 768
502099 714
502103 739
502107 794
502112 765
502116 708
502120 732
502124 790
502128 774
502132 711
502136 715
502140 774
502144 776
502148 720
502152 718
502156 782
502160 798
502164 739
502168 716
502172 769
502176 795
502180 739
502184 704
502188 751
502192 789
502196 745
502200 694
502204 736
502208 784
502212 749
502216 690
502220 717
502224 773
502228 753
502232 693
502236 712
502240 775
502244 772
502248 711
502252 710
502256 769
502260 776
502264 724
502268 714
502272 768
502276 785
502280 727
502284 694
502288 752
502292 787
502296 742
502300 703
502304 746
502308 792
502312 754
502317 706
502321 746
502325 796
502329 768
502333 716
502337 740
502341 793
502345 770
502349 712
502353 728
502357 795
502361 795
502365 737
502369 737
502373 794
502377 798
502381 734
502385 716
502389 772
502393 792
502397 730
502401 693
502405 746
502409 776
502413 727
502417 685
502421 728
502425 771
502429 729
502433 676
502437 712
502441 764
502445 733
502449 662
502453 674
502457 738
502461 737
502465 692
502469 730
502473 822
502477 858
502481 823
502485 826
502489 874
502493 849
502497 741
502501 678
502505 718
502509 746
502513 696
502517 663
502521 710
502525 740
502529 687
502533 640
502537 676
502541 728
502545 689
502549 634
502553 661
502557 720
502561 694
502565 634
502569 644
502573 702
502577 691
502581 629
502585 628
502590 686
502594 691
502598 628
502602 610
502606 667
502610 689
502614 632
502618 603
502622 655
502626 692
502630 646
502634 610
502638 658
502642 710
502646 669
502650 620
502654 653
502658 711
502662 681
502666 626
502670 646
502674 711
502678 700
502682 639
502686 645
502690 711
502694 716
502698 654
502702 648
502706 714
502710 735
502714 677
502718 658
502722 721
502726 751
502730 696
502734 662
502738 712
502742 750
502746 705
502750 656
502754 693
502758 742
502762 705
502766 641
502770 661
502774 712
502778 681
502782 615
502786 619
502790 673
502794 661
502798 592
502802 585
502806 641
502810 646
502814 582
502818 566
502822 622
502826 642
502830 586
502834 558
502838 609
502842 644
502846 595
502850 554
502854 596
502858 641
502862 603
502866 554
502870 586
502874 639
502878 614
502882 560
502886 580
502890 638
502894 626
502898 567
502902 574
502906 634
502910 637
502915 578
502919 570
502923 629
502927 646
502931 586
502935 574
502939 629
502943 645
502947 589
502951 566
502955 620
502959 653
502963 603
502967 566
502971 610
502975 654
502979 615
502983 567
502987 598
502991 648
502995 616
502999 561
503003 582
503007 639
503011 624
503015 566
503019 572
503023 629
503027 626
503031 562
503035 554
503039 612
503043 625
503047 566
503051 542
503055 597
503059 622
503063 569
503067 533
503071 582
503075 622
503079 582
503083 541
503087 579
503091 625
503095 588
503099 531
503103 553
503107 606
503111 585
503115 525
503119 536
503123 591
503128 581
503132 519
503136 520
503140 579
503144 578
503148 517
503152 508
503156 567
503160 580
503164 519
503168 498
503172 552
503176 578
503180 521
503184 484
503188 531
503192 570
503196 528
503200 485
503204 521
503208 569
503212 534
503216 481
503220 507
503224 561
503228 542
503232 482
503236 494
503240 555
503244 553
503248 493
503252 489
503256 549
503260 555
503264 493
503268 476
503272 536
503276 561
503280 507
503284 481
503288 535
503292 572
503296 526
503300 487
503304 529
503308 571
503312 533
503316 483
503320 516
503324 569
503328 540
503332 477
503336 494
503340 553
503344 541
503348 480
503352 483
503356 541
503360 543
503364 484
503368 476
503373 532
503377 538
503381 471
503385 449
503389 516
503393 564
503397 536
503401 533
503405 612
503409 682
503413 655
503417 601
503421 606
503425 609
503429 542
503433 466
503437 486
503441 546
503445 530
503449 466
503453 472
503457 529
503461 522
503465 459
503469 451
503473 510
503477 520
503481 460
503485 440
503489 495
503493 517
503497 461
503501 429
503505 481
503509 518
503513 473
503517 433
503521 476
503525 524
503529 489
503533 441
503537 474
503541 528
503545 504
503549 449
503553 470
503557 529
503561 519
503565 461
503569 466
503573 526
503577 529
503581 468
503585 458
503589 516
503593 534
503597 487
503601 478
503605 543
503609 572
503613 518
503617 480
503621 525
503625 567
503629 525
503633 483
503637 523
503641 574
503645 543
503649 490
503653 516
503657 572
503661 554
503665 495
503669 505
503673 562
503677 557
503681 495
503685 488
503689 544
503693 548
503697 484
503701 462
503705 516
503709 536
503714 478
503718 442
503722 488
503726 521
503730 469
503734 425
503738 464
503742 510
503746 474
503750 416
503754 461
503758 507
503762 471
503766 415
503770 450
503774 506
503778 483
503782 426
503786 441
503790 498
503794 486
503798 424
503802 425
503806 483
503810 486
503814 423
503818 406
503822 469
503826 486
503830 428
503834 400
503838 457
503843 486
503847 436
503851 397
503855 445
503859 486
503863 446
503867 394
503871 434
503875 486
503879 458
503883 401
503887 429
503891 488
503895 474
503899 412
503903 426
503907 487
503911 488
503915 428
503919 423
503923 483
503927 496
503931 439
503935 416
503939 475
503943 496
503947 439
503951 402
503955 459
503959 495
503963 449
503967 404
503971 449
503975 497
503979 461
503983 404
503987 436
503991 489
503995 469
503999 408
504003 428
504007 486
504011 476
504015 413
504019 416
504023 484
504027 488
504031 427
504035 408
504039 468
504043 485
504047 429
504051 401
504055 458
504059 488
504063 437
504067 393
504071 441
504075 484
504079 444
504083 392
504087 430
504091 486
504095 462
504099 406
504103 433
504107 488
504111 473
504115 408
504119 415
504123 481
504127 483
504131 423
504135 414
504139 478
504143 492
504147 433
504151 411
504155 471
504160 496
504164 437
504168 414
504172 477
504176 512
504180 461
504184 422
504188 466
504192 510
504196 469
504200 416
504204 451
504208 501
504212 470
504216 412
504220 436
504224 490
504228 473
504232 409
504236 416
504240 480
504244 474
504248 405
504252 398
504256 460
504260 469
504264 405
504268 392
504272 457
504276 476
504280 413
504284 376
504288 427
504292 461
504296 410
504300 366
504304 404
504308 447
504312 396
504316 342
504320 380
504324 454
504328 453
504332 423
504336 470
504340 559
504344 566
504348 499
504352 476
504356 493
504360 456
504365 363
504369 351
504373 418
504377 441
504381 377
504385 353
504389 404
504393 433
504397 377
504401 346
504405 396
504409 439
504413 393
504417 350
504421 392
504425 445
504429 405
504433 358
504437 387
504441 446
504445 416
504449 356
504453 369
504457 433
504461 424
504465 360
504469 362
504473 428
504477 437
504481 374
504485 360
504489 418
504493 441
504497 381
504501 356
504505 412
504509 449
504513 399
504517 363
504521 410
504525 454
504529 408
504533 360
504537 396
504541 454
504545 427
504549 369
504553 393
504557 459
504561 448
504565 387
504569 397
504573 463
504577 466
504581 406
504585 403
504589 468
504593 480
504597 415
504601 394
504605 456
504609 482
504613 427
504617 388
504621 439
504625 473
504630 418
504634 364
504638 394
504642 440
504646 399
504650 343
504654 365
504658 414
504662 386
504666 326
504670 338
504674 397
504678 389
504682 327
504686 326
504690 384
504694 392
504698 331
504702 316
504706 375
504710 398
504714 348
504718 322
504722 376
504726 406
504730 354
504734 309
504738 351
504742 394
504746 355
504750 307
504754 338
504758 391
504762 367
504766 315
504770 337
504774 394
504778 379
504782 321
504786 331
504790 397
504794 401
504798 340
504802 330
504806 387
504810 401
504814 343
504818 324
504822 380
504826 408
504830 355
504834 322
504838 374
504842 414
504846 374
504850 330
504854 368
504858 415
504862 382
504866 331
504870 360
504874 415
504878 393
504882 338
504886 352
504890 408
504894 397
504898 334
504902 334
504906 396
504910 405
504914 345
504918 327
504922 382
504927 405
504931 356
504934 337
504938 392
504942 428
504946 374
504950 333
504954 376
504958 424
504962 384
504967 336
504971 366
504975 422
504979 381
504983 330
504987 362
504991 417
504995 392
504999 329
505003 342
505007 401
505011 392
505015 336
505019 339
505023 398
505027 401
505031 340
505035 330
505039 389
505043 406
505047 349
505051 326
505055 377
505059 403
505063 350
505067 313
505071 362
505075 405
505079 364
505083 316
505087 350
505091 401
505095 369
505099 314
505103 340
505107 401
505111 388
505115 329
505119 338
505123 397
505127 396
505131 336
505135 328
505139 390
505143 403
505147 341
505151 318
505155 369
505160 393
505164 338
505168 303
505172 350
505176 387
505180 339
505184 296
505188 338
505192 387
505196 354
505200 298
505204 321
505208 375
505212 349
505216 286
505220 306
505224 378
505228 393
505232 362
505236 390
505240 473
505244 483
505248 402
505252 366
505256 391
505260 379
505264 303
505268 264
505272 316
505276 352
505280 303
505284 262
505288 305
505292 345
505296 302
505300 252
505304 289
505308 344
505312 317
505316 258
505320 279
505324 340
505328 328
505332 268
505336 273
505340 334
505344 337
505348 276
505352 268
505356 328
505360 341
505364 281
505368 256
505372 312
505376 344
505380 293
505384 256
505388 301
505392 340
505396 303
505400 261
505404 298
505408 345
505412 310
505416 258
505420 288
505424 343
505428 327
505432 272
505436 289
505440 353
505444 349
505448 289
505452 290
505456 354
505460 363
505464 303
505468 290
505472 349
505476 374
505480 321
505484 297
505488 353
505493 388
505496 341
505500 301
505504 345
505508 396
505512 361
505516 310
505520 337
505525 385
505529 356
505533 301
505537 319
505541 376
505545 360
505549 296
505553 301
505557 363
505561 365
505565 303
505569 291
505573 346
505577 358
505581 303
505585 283
505589 340
505593 369
505597 322
505601 296
505605 345
505609 384
505613 338
505617 290
505621 328
505625 379
505629 349
505633 296
505637 320
505641 376
505645 360
505649 303
505653 316
505657 374
505661 367
505665 309
505669 310
505673 373
505677 382
505681 324
505685 310
505689 369
505693 392
505697 336
505701 307
505705 357
505709 392
505713 348
505717 308
505721 351
505725 397
505729 358
505733 307
505737 339
505741 392
505745 368
505749 316
505753 337
505757 397
505761 386
505765 329
505769 337
505773 398
505777 399
505781 339
505785 329
505789 389
505793 406
505797 353
505801 336
505805 396
505809 430
505813 374
505817 336
505821 381
505825 424
505829 377
505833 329
505837 363
505841 412
505845 381
505849 330
505853 355
505858 410
505862 391
505866 332
505870 344
505874 405
505878 404
505882 346
505886 344
505890 405
505894 413
505898 351
505902 334
505906 392
505910 418
505914 367
505918 341
505922 394
505926 435
505930 382
505934 341
505938 382
505942 433
505946 393
505950 343
505954 373
505958 429
505962 402
505966 348
505970 367
505974 433
505978 426
505982 367
505986 374
505990 438
505994 441
505998 381
506002 375
506006 442
506010 469
506014 415
506018 392
506022 448
506026 474
506030 415
506034 376
506038 426
506042 465
506046 422
506050 374
506054 410
506058 466
506062 440
506066 384
506070 408
506074 464
506078 441
506082 376
506086 397
506090 484
506094 513
506098 487
506102 512
506106 590
506110 607
506114 535
506118 494
506122 516
506126 514
506130 442
506134 394
506138 446
506142 484
506146 440
506150 393
506154 432
506158 474
506162 437
506166 381
506170 413
506174 475
506178 458
506182 401
506186 416
506190 481
506194 475
506198 414
506202 418
506206 483
506211 489
506214 438
506218 436
506222 498
506226 519
506231 464
506235 439
506239 490
506243 522
506247 475
506251 441
506255 488
506259 534
506263 501
506267 466
506271 516
506275 568
506279 534
506283 478
506287 501
506291 555
506295 537
506299 483
506303 497
506307 559
506311 556
506315 502
506319 504
506323 561
506327 571
506331 517
506335 506
506339 562
506343 590
506347 544
506351 522
506355 576
506359 609
506363 568
506367 535
506371 582
506375 629
506379 595
506383 543
506387 569
506391 615
506395 585
506399 525
506403 538
506407 590
506411 572
506415 509
506419 513
506423 571
506427 570
506431 511
506435 499
506439 556
506443 574
506447 519
506451 498
506455 553
506459 583
506463 534
506467 500
506471 546
506475 586
506479 545
506483 502
506487 541
506491 594
506495 566
506499 513
506503 537
506507 592
506511 572
506516 514
506519 526
506524 588
506528 586
506532 530
506536 530
506540 591
506544 603
506548 545
506552 532
506556 590
506560 617
506564 562
506568 534
506572 585
506576 622
506580 578
506584 536
506588 578
506592 624
506596 589
506600 538
506604 567
506608 619
506612 596
506616 540
506620 554
506624 607
506628 596
506632 540
506636 545
506640 605
506644 606
506648 543
506652 532
506656 591
506660 609
506664 554
506668 530
506672 582
506676 614
506680 567
506684 534
506688 580
506692 619
506696 579
506700 535
506704 572
506708 620
506712 589
506716 535
506720 561
506724 619
506728 602
506732 543
506736 552
506740 608
506744 605
506748 545
506752 544
506756 604
506760 614
506764 555
506768 537
506772 594
506776 619
506780 568
506784 540
506788 589
506792 622
506796 574
506800 533
506804 572
506808 619
506812 585
506816 535
506820 562
506824 618
506828 598
506832 545
506836 562
506840 617
506844 605
506848 543
506852 544
506856 601
506860 600
506864 536
506869 525
506873 586
506877 607
506881 553
506885 525
506889 577
506893 605
506897 553
506901 514
506905 558
506909 597
506913 547
506917 493
506921 525
506925 590
506929 580
506933 558
506937 617
506941 703
506945 709
506949 657
506953 657
506957 689
506961 640
506965 545
506969 521
506973 571
506977 582
506981 526
506985 508
506989 560
506993 578
506997 519
507001 488
507005 537
507009 571
507013 523
507017 481
507021 522
507025 566
507029 525
507033 477
507037 508
507041 559
507045 533
507049 480
507053 498
507057 555
507061 541
507065 481
507069 486
507073 546
507077 549
507081 489
507085 481
507089 541
507093 556
507097 500
507101 483
507105 540
507109 567
507113 513
507117 480
507121 528
507125 572
507130 532
507134 488
507138 525
507142 576
507146 544
507150 494
507154 521
507158 579
507162 562
507166 508
507170 521
507174 581
507178 579
507182 525
507186 526
507190 589
507194 598
507198 540
507202 525
507206 584
507210 608
507214 556
507218 526
507222 574
507226 601
507230 550
507234 507
507238 545
507242 586
507246 547
507250 497
507254 524
507258 570
507262 541
507266 483
507270 500
507274 556
507278 542
507282 482
507286 484
507290 542
507294 545
507298 486
507302 476
507306 534
507310 550
507314 493
507318 470
507322 524
507326 554
507330 507
507334 475
507338 521
507342 560
507346 518
507350 475
507354 514
507358 566
507362 537
507366 488
507370 513
507374 567
507378 546
507382 489
507386 505
507390 566
507394 561
507398 504
507402 504
507406 569
507410 582
507414 525
507418 508
507422 567
507426 592
507430 542
507434 516
507438 568
507442 602
507446 556
507450 518
507454 561
507458 609
507462 573
507466 523
507470 554
507474 608
507478 585
507482 530
507486 547
507490 606
507494 597
507498 540
507502 543
507506 603
507510 607
507515 546
507519 535
507523 594
507527 610
507531 554
507535 532
507539 590
507543 620
507547 570
507551 535
507555 584
507559 624
507563 581
507567 536
507571 572
507575 621
507579 590
507583 536
507587 562
507591 620
507595 604
507599 553
507603 573
507607 631
507611 618
507615 555
507619 557
507623 618
507627 622
507631 562
507635 553
507639 610
507643 628
507647 570
507651 543
507655 596
507659 626
507663 577
507667 543
507671 591
507675 633
507679 592
507683 546
507687 582
507691 633
507695 603
507699 546
507703 567
507707 620
507711 601
507715 541
507719 549
507723 609
507727 607
507731 546
507735 541
507739 601
507744 608
507748 552
507752 541
507756 596
507760 606
507764 543
507768 521
507772 586
507776 634
507780 608
507784 600
507788 677
507792 754
507796 728
507800 667
507804 668
507808 673
507812 606
507816 529
507820 545
507824 605
507828 590
507832 528
507836 532
507840 588
507844 582
507848 521
507852 521
507856 582
507860 594
507864 532
507868 509
507872 562
507876 586
507880 529
507884 496
507888 547
507892 586
507896 541
507900 496
507904 534
507908 580
507912 544
507916 493
507920 521
507924 576
507928 554
507932 497
507936 516
507940 580
507944 576
507949 513
507953 517
507957 577
507961 577
507965 514
507969 504
507973 562
507977 580
507981 522
507985 500
507989 556
507993 586
507997 535
508001 501
508005 549
508009 591
508013 549
508017 504
508021 541
508025 590
508029 560
508033 507
508037 532
508041 588
508045 570
508049 513
508053 526
508057 594
508061 590
508065 524
508069 516
508073 570
508077 573
508081 508
508085 487
508089 541
508093 556
508097 496
508101 461
508105 507
508109 538
508113 487
508117 442
508121 481
508125 522
508129 480
508133 427
508137 459
508141 511
508145 485
508149 429
508154 457
508158 513
508162 493
508166 432
508170 444
508174 502
508178 495
508182 434
508186 436
508190 498
508194 505
508198 442
508202 428
508206 488
508210 511
508214 456
508218 428
508222 482
508226 516
508230 466
508234 426
508238 470
508242 513
508246 473
508250 423
508254 457
508258 509
508262 483
508266 447
508270 478
508274 535
508278 509
508282 446
508286 450
508290 506
508294 496
508298 429
508302 420
508306 481
508310 489
508314 427
508318 402
508322 463
508326 487
508330 429
508334 393
508338 448
508342 486
508346 440
508350 393
508354 437
508358 485
508362 449
508366 396
508370 429
508374 484
508378 458
508382 396
508386 413
508390 475
508394 463
508398 393
508402 394
508406 462
508410 466
508415 401
508419 387
508423 450
508427 468
508431 403
508435 377
508439 438
508443 474
508447 426
508451 386
508455 436
508459 478
508463 436
508467 382
508471 417
508475 471
508479 438
508483 377
508487 399
508491 461
508495 447
508499 384
508503 393
508507 461
508511 460
508515 394
508519 388
508523 452
508527 463
508531 398
508535 377
508539 440
508543 469
508547 411
508551 376
508555 430
508559 470
508563 425
508567 377
508571 423
508575 477
508579 446
508583 388
508587 414
508591 470
508595 444
508599 376
508603 387
508607 450
508611 440
508615 372
508619 368
508623 433
508627 439
508631 370
508635 353
508639 413
508643 437
508647 378
508651 351
508655 404
508659 439
508663 377
508667 334
508671 387
508675 451
508679 432
508683 404
508687 471
508691 556
508695 552
508699 496
508703 496
508707 513
508711 457
508715 363
508719 362
508723 438
508727 449
508731 382
508735 368
508739 428
508743 441
508747 374
508751 346
508755 402
508759 434
508763 374
508768 336
508772 386
508776 429
508780 379
508784 336
508788 376
508792 430
508796 391
508800 337
508804 365
508808 425
508812 397
508816 336
508820 348
508824 411
508828 404
508832 340
508836 340
508840 406
508844 416
508848 355
508852 337
508856 396
508860 416
508864 357
508868 328
508872 387
508876 433
508880 384
508884 342
508888 386
508892 436
508896 394
508900 344
508904 378
508908 440
508912 413
508916 361
508920 387
508924 458
508928 451
508932 393
508936 406
508940 475
508944 474
508948 405
508952 394
508956 459
508960 470
508964 403
508968 377
508973 445
508977 456
508981 387
508985 360
508989 413
508993 440
508997 376
509001 337
509005 382
509009 426
509013 373
509017 320
509021 358
509025 414
509029 381
509033 327
509037 353
509041 412
509045 390
509049 329
509053 341
509057 405
509061 398
509065 334
509069 330
509073 397
509077 408
509081 345
509085 327
509089 388
509093 414
509097 356
509101 327
509105 385
509109 427
509113 373
509117 328
509121 373
509125 422
509129 376
509133 321
509137 356
509141 416
509145 394
509149 334
509153 352
509157 417
509161 410
509165 348
509169 351
509173 416
509177 423
509181 355
509185 345
509189 408
509193 428
509197 363
509201 336
509205 393
509209 428
509213 369
509217 330
509221 379
509225 427
509229 379
509233 329
509237 367
509241 426
509245 391
509249 336
509253 362
509257 426
509262 404
509266 343
509270 356
509274 426
509278 416
509282 350
509286 353
509290 428
509294 440
509298 368
509302 346
509306 403
509310 433
509314 373
509318 339
509322 393
509326 436
509330 381
509334 337
509338 379
509342 433
509346 392
509350 337
509354 367
509358 429
509362 401
509366 341
509370 357
509374 423
509378 408
509382 339
509386 349
509390 415
509394 414
509398 351
509402 346
509406 411
509410 427
509414 358
509418 336
509422 396
509426 428
509430 366
509434 329
509438 382
509442 426
509446 378
509450 334
509454 375
509458 429
509462 389
509466 337
509470 367
509474 430
509478 404
509482 344
509486 362
509490 432
509494 427
509498 363
509502 365
509506 434
509510 440
509514 374
509518 358
509523 424
509527 447
509531 382
509535 352
509539 404
509543 440
509547 384
509551 341
509555 388
509559 438
509563 393
509567 343
509571 379
509575 440
509579 406
509583 342
509587 361
509591 429
509596 420
509600 381
509604 433
509607 516
509611 524
509616 487
509620 509
509624 565
509628 530
509632 423
509636 379
509640 428
509644 440
509648 381
509652 363
509656 422
509660 442
509664 376
509668 339
509672 390
509676 433
509680 381
509684 337
509688 381
509692 435
509696 394
509700 340
509704 372
509708 433
509712 404
509716 342
509720 357
509724 426
509728 414
509732 350
509736 353
509740 420
509744 432
509748 367
509752 354
509756 416
509760 440
509764 377
509768 353
509772 410
509776 448
509780 392
509784 350
509788 399
509792 451
509796 408
509800 360
509804 397
509808 456
509812 427
509816 368
509820 396
509824 463
509828 450
509832 388
509836 401
509840 473
509844 474
509848 406
509852 402
509856 471
509860 488
509864 429
509868 408
509872 474
509876 504
509880 449
509884 411
509888 464
509892 501
509896 450
509900 401
509904 446
509908 493
509912 450
509916 386
509920 406
509924 462
509928 437
509932 368
509936 382
509940 447
509944 436
509948 367
509952 365
509956 432
509960 439
509964 369
509968 354
509972 415
509976 442
509980 378
509984 346
509989 401
509993 440
509997 385
510001 342
510005 387
510009 440
510013 396
510017 344
510021 378
510025 440
510029 411
510033 351
510037 372
510041 437
510045 426
510049 363
510053 372
510057 442
510061 444
510065 375
510069 365
510073 430
510077 446
510081 381
510085 360
510089 422
510093 452
510097 393
510101 357
510105 412
510109 458
510113 405
510117 356
510121 393
510125 447
510129 408
510133 351
510137 377
510141 440
510145 415
510149 354
510153 368
510157 438
510161 430
510165 361
510169 357
510173 424
510177 435
510181 369
510185 354
510189 415
510193 441
510197 381
510201 351
510205 405
510209 445
510213 387
510217 344
510221 392
510225 447
510229 406
510233 355
510237 387
510241 447
510245 417
510249 358
510253 378
510257 447
510261 456
510265 408
510269 415
510273 473
510277 463
510281 387
510285 374
510289 439
510293 456
510297 389
510301 362
510305 418
510309 454
510313 397
510317 360
510321 408
510325 456
510329 405
510333 354
510338 391
510342 447
510346 411
510350 351
510354 369
510358 429
510362 408
510366 348
510370 360
510374 427
510378 421
510382 351
510386 343
510390 405
510394 418
510398 358
510402 345
510406 410
510410 439
510414 376
510418 344
510422 399
510426 442
510430 388
510434 344
510438 387
510442 439
510446 396
510450 339
510454 364
510458 423
510462 396
510466 336
510470 350
510474 412
510478 400
510482 334
510486 334
510490 393
510494 393
510498 324
510502 312
510506 385
510510 427
510514 387
510518 388
510522 475
510526 532
510530 493
510534 446
510538 469
510542 476
510546 397
510550 328
510554 360
510558 416
510562 388
510566 328
510570 343
510574 397
510578 377
510582 313
510586 321
510590 387
510594 388
510598 322
510602 313
510606 375
510610 389
510614 327
510618 302
510622 358
510626 386
510630 329
510634 296
510638 349
510642 393
510646 348
510650 301
510654 340
510658 391
510662 357
510666 304
510670 334
510674 397
510678 377
510682 317
510686 330
510690 396
510694 392
510698 328
510703 327
510707 390
510711 399
510715 337
510719 320
510723 382
510727 408
510731 353
510735 325
510739 378
510743 412
510747 361
510751 322
510755 372
510759 424
510763 381
510767 334
510771 375
510775 440
510779 409
510783 349
510787 369
510791 437
510795 423
510799 356
510803 363
510807 429
510811 428
510815 357
510819 344
510823 403
510827 422
510831 354
510835 325
510839 377
510843 403
510847 348
510851 312
510855 362
510859 403
510863 356
510867 308
510871 349
510875 402
510879 369
510883 312
510887 336
510891 393
510895 376
510899 319
510903 331
510907 393
510911 384
510915 318
510919 317
510923 387
510927 404
510931 354
510935 343
510939 399
510943 415
510947 352
510951 316
510955 367
510959 404
510963 356
510967 313
510971 355
510975 401
510979 361
510983 308
510987 344
510991 403
510995 379
510999 320
511003 338
511007 401
511011 393
511015 330
511019 336
511023 400
511027 403
511031 341
511035 333
511039 397
511043 415
511047 355
511051 330
511055 388
511059 424
511063 366
511067 327
511071 375
511075 424
511079 379
511083 331
511088 369
511092 425
511096 385
511100 328
511104 354
511108 420
511112 403
511116 340
511120 346
511124 409
511128 403
511132 337
511136 331
511140 400
511144 415
511148 354
511152 334
511156 394
511160 427
511164 367
511168 334
511172 389
511176 436
511180 387
511184 339
511188 376
511192 426
511196 384
511200 332
511204 366
511208 429
511212 403
511216 341
511220 354
511224 416
511228 409
511232 345
511236 346
511240 412
511244 423
511248 360
511252 344
511256 403
511260 425
511264 362
511268 337
511272 396
511276 438
511280 385
511284 348
511288 393
511292 440
511296 396
511300 349
511304 387
511308 449
511312 426
511316 366
511320 388
511324 450
511328 434
511332 368
511336 380
511340 452
511344 454
511348 385
511352 375
511356 437
511360 450
511364 384
511368 363
511372 427
511376 458
511380 401
511384 366
511388 416
511392 460
511396 405
511400 354
511404 386
511408 440
511412 414
511416 379
511420 440
511424 525
511428 529
511432 485
511436 500
511440 548
511444 517
511449 421
511453 394
511457 447
511461 448
511465 380
511469 366
511473 430
511477 450
511481 386
511485 353
511489 405
511493 448
511497 423
511501 394
511505 440
511509 474
511513 423
511517 363
511521 396
511525 453
511529 425
511533 362
511537 382
511541 447
511545 435
511549 368
511553 375
511557 442
511561 446
511565 378
511569 368
511573 436
511577 450
511581 388
511585 367
511589 437
511593 494
511597 478
511601 454
511605 493
511609 516
511613 457
511617 399
511621 441
511625 494
511629 460
511633 399
511637 430
511641 490
511645 473
511649 410
511653 430
511657 497
511661 496
511665 436
511669 439
511673 507
511677 522
511681 461
511685 441
511689 500
511693 523
511697 466
511701 437
511705 489
511709 524
511713 473
511717 427
511721 469
511725 513
511729 469
511733 412
511738 447
511742 494
511746 459
511750 396
511754 423
511758 484
511762 466
511766 401
511770 409
511774 475
511778 474
511782 406
511786 404
511790 475
511794 488
511798 427
511802 403
511806 466
511810 493
511814 436
511818 396
511822 451
511826 495
511830 449
511834 403
511838 450
511842 501
511846 465
511850 408
511854 441
511858 500
511862 478
511866 415
511870 435
511874 497
511878 487
511882 424
511886 427
511890 493
511894 499
511898 437
511902 424
511906 487
511910 507
511914 448
511918 415
511922 474
511926 511
511930 461
511934 421
511938 470
511942 518
511946 478
511950 427
511954 460
511958 514
511962 488
511966 430
511970 450
511974 511
511978 498
511982 437
511986 446
511990 508
511994 511
511998 449
512002 442
512006 505
512010 521
512014 463
512018 446
512022 507
512026 537
512030 481
512034 444
512038 494
512042 536
512046 493
512050 447
512054 485
512058 533
512062 499
512066 447
512070 476
512074 536
512078 518
512082 456
512086 466
512090 528
512094 524
512098 463
512103 463
512107 528
512111 541
512115 478
512119 461
512123 521
512127 546
512131 490
512135 460
512139 509
512143 545
512147 489
512151 456
512155 508
512159 552
512163 507
512167 457
512171 495
512175 547
512179 518
512183 464
512187 492
512191 552
512195 533
512199 470
512203 482
512207 543
512211 540
512215 478
512219 480
512223 545
512227 557
512231 496
512235 478
512239 540
512243 567
512247 509
512251 478
512255 534
512259 570
512263 521
512267 476
512271 514
512275 557
512279 514
512283 460
512287 493
512291 550
512295 526
512299 465
512303 477
512307 532
512311 514
512315 452
512319 468
512323 553
512327 586
512331 553
512335 568
512339 653
512343 686
512347 618
512352 565
512356 590
512360 589
512364 519
512368 485
512372 537
512376 569
512380 513
512384 471
512388 518
512392 560
512396 513
512400 460
512404 495
512408 547
512412 516
512416 458
512420 480
512424 540
512428 524
512432 464
512436 475
512440 540
512444 537
512448 474
512452 466
512456 532
512460 546
512464 488
512468 470
512472 531
512476 558
512480 502
512484 468
512488 519
512492 559
512497 513
512501 469
512505 511
512509 560
512513 523
512517 470
512521 506
512525 569
512529 549
512533 487
512537 501
512541 565
512545 560
512549 502
512553 505
512557 570
512561 579
512565 519
512569 509
512573 574
512577 600
512581 543
512585 517
512589 571
512593 606
512597 555
512601 516
512605 562
512609 609
512613 570
512617 518
512621 552
512625 600
512629 567
512633 504
512637 521
512641 577
512645 558
512649 492
512653 494
512657 554
512661 553
512665 488
512669 480
512673 541
512677 556
512681 497
512685 477
512689 537
512693 568
512697 512
512701 474
512705 523
512709 566
512713 523
512717 481
512721 522
512725 572
512729 537
512733 483
512737 509
512741 566
512745 543
512749 483
512753 495
512757 554
512761 546
512765 486
512769 487
512773 552
512777 560
512781 496
512785 480
512789 543
512793 568
512797 511
512801 481
512805 535
512809 572
512813 525
512817 484
512821 528
512825 574
512829 534
512833 483
512837 516
512841 573
512845 547
512850 489
512854 513
512858 577
512862 566
512866 500
512870 504
512874 566
512878 566
512882 504
512886 495
512890 556
512894 576
512898 516
512902 488
512906 542
512910 570
512914 518
512918 483
512922 536
512926 588
512930 552
512934 511
512938 546
512942 593
512946 554
512950 493
512954 513
512958 571
512962 553
512966 484
512970 505
512974 565
512978 549
512982 487
512986 493
512990 554
512994 555
512998 493
513002 486
513006 548
513010 564
513014 505
513018 484
513022 543
513026 574
513030 519
513034 482
513038 531
513042 572
513047 530
513051 484
513055 522
513059 572
513063 536
513067 481
513071 509
513075 568
513079 545
513083 485
513087 498
513091 559
513095 554
513099 493
513103 490
513107 554
513111 562
513115 500
513119 485
513123 546
513127 570
513131 514
513135 488
513139 546
513143 585
513147 535
513151 496
513155 542
513159 588
513163 547
513167 496
513171 533
513175 583
513179 549
513183 489
513187 511
513191 569
513195 550
513199 486
513203 493
513207 555
513211 556
513215 494
513219 486
513223 543
513227 547
513231 478
513235 460
513239 530
513243 576
513247 546
513251 543
513255 626
513259 694
513263 655
513267 595
513271 600
513275 606
513279 538
513283 469
513287 495
513291 559
513295 543
513299 484
513303 496
513307 555
513311 546
513315 483
513319 483
513323 545
513327 550
513331 486
513336 469
513339 531
513343 555
513348 495
513352 464
513356 518
513360 552
513364 500
513368 461
513372 507
513376 553
513380 506
513384 460
513388 496
513392 547
513396 516
513400 457
513404 478
513408 535
513412 519
513416 459
513420 466
513424 528
513428 526
513432 464
513436 460
513440 524
513444 540
513448 480
513452 462
513456 524
513460 555
513464 502
513468 469
513472 523
513476 566
513480 520
513484 475
513488 516
513492 566
513496 529
513500 478
513504 512
513508 572
513512 552
513516 494
513520 508
513524 568
513528 559
513532 497
513536 497
513540 557
513544 562
513548 497
513552 478
513556 535
513560 554
513564 494
513568 462
513572 516
513576 547
513581 489
513585 452
513589 502
513593 549
513597 504
513601 459
513605 495
513609 540
513613 499
513617 441
513621 469
513625 526
513629 506
513633 446
513637 460
513641 521
513645 513
513649 450
513653 449
513657 510
513661 517
513665 456
513669 441
513673 504
513677 525
513681 466
513685 439
513689 495
513693 532
513697 484
513701 447
513705 493
513709 536
513713 497
513717 447
513721 481
513725 537
513729 513
513733 457
513737 478
513741 536
513745 523
513749 461
513753 468
513757 531
513761 536
513765 480
513769 473
513773 535
513777 548
513781 486
513786 470
513790 533
513794 549
513798 488
513802 466
513806 524
513810 555
513814 502
513818 465
513822 513
513826 555
513830 509
513834 461
513838 499
513842 553
513846 522
513850 468
513854 496
513858 556
513862 540
513866 478
513870 489
513874 554
513878 550
513882 489
513886 489
513890 554
513894 566
513898 504
513902 487
513906 547
513910 574
513914 517
513918 486
513922 537
513926 574
513930 525
513934 483
513938 525
513942 571
513946 532
513950 480
513954 510
513958 566
513962 540
513966 478
513970 496
513974 555
513978 542
513982 477
513986 481
513990 543
513994 546
513998 483
514002 470
514006 531
514010 548
514014 489
514018 466
514022 522
514026 554
514031 502
514035 466
514039 517
514043 560
514047 517
514051 470
514055 511
514059 567
514063 536
514067 484
514071 511
514075 571
514079 554
514083 495
514087 505
514091 566
514095 560
514099 496
514103 489
514107 547
514111 554
514115 488
514119 470
514123 528
514127 553
514131 495
514135 460
514139 510
514143 552
514147 506
514151 461
514155 498
514159 536
514163 494
514167 446
514171 489
514175 567
514179 569
514183 536
514187 584
514191 672
514195 672
514199 595
514203 564
514207 589
514211 564
514215 486
514219 474
514223 538
514227 555
514231 492
514235 464
514239 518
514243 549
514247 495
514251 456
514255 505
514259 548
514263 507
514267 463
514271 500
514275 550
514279 517
514283 457
514287 478
514291 537
514295 522
514299 461
514303 469
514307 531
514311 531
514315 469
514319 466
514323 531
514327 546
514331 488
514335 469
514339 526
514343 554
514347 499
514351 465
514355 517
514359 558
514363 514
514367 470
514371 509
514375 558
514380 522
514384 471
514388 502
514392 561
514396 542
514400 480
514404 505
514408 566
514412 552
514416 489
514420 498
514424 562
514428 565
514432 505
514436 500
514440 565
514444 580
514448 518
514452 496
514456 552
514460 579
514464 522
514468 486
514472 533
514476 568
514480 519
514484 470
514488 506
514492 552
514496 514
514500 458
514504 482
514508 536
514512 514
514516 450
514520 460
514524 521
514528 513
514532 450
514536 450
514540 514
514544 521
514548 458
514552 442
514556 502
514560 522
514564 465
514568 439
514572 495
514576 531
514580 481
514584 441
514588 486
514592 532
514596 493
514600 446
514605 483
514609 537
514613 510
514617 452
514621 474
514625 534
514629 521
514633 460
514637 468
514641 530
514645 529
514649 468
514653 462
514657 524
514661 540
514665 478
514669 457
514673 513
514677 540
514681 483
514685 448
514689 498
514693 541
514697 495
514701 451
514705 493
514709 543
514713 511
514717 458
514721 485
514725 543
514729 524
514733 468
514737 483
514741 545
514745 540
514749 478
514753 478
514757 542
514761 552
514765 489
514769 475
514773 535
514777 556
514781 497
514785 465
514789 518
514793 554
514797 506
514801 465
514805 510
514809 556
514813 514
514817 464
514821 499
514825 553
514829 523
514833 466
514837 487
514841 546
514845 531
514849 468
514853 475
514857 540
514861 543
514865 484
514869 476
514873 536
514877 553
514881 494
514885 470
514889 525
514893 552
514897 495
514901 459
514905 506
514909 545
514913 499
514917 454
514922 496
514926 553
514930 522
514934 475
514938 505
514942 559
514946 535
514950 474
514954 487
514958 546
514962 537
514966 475
514970 475
514974 535
514978 542
514982 478
514986 462
514990 522
514994 542
514998 484
515002 454
515006 509
515010 548
515014 495
515018 464
515022 516
515026 553
515030 506
515034 464
515038 507
515042 555
515046 518
515050 461
515054 486
515058 540
515062 516
515066 459
515070 475
515074 535
515078 524
515082 461
515086 463
515091 525
515094 532
515098 464
515102 442
515107 497
515111 521
515115 474
515119 462
515123 541
515127 601
515131 580
515135 566
515139 619
515143 655
515147 580
515151 487
515155 489
515159 526
515163 498
515167 449
515171 473
515175 528
515179 507
515183 441
515187 445
515191 506
515195 506
515199 442
515203 437
515207 497
515211 509
515215 450
515219 433
515223 496
515227 523
515231 469
515235 436
515239 486
515243 525
515247 480
515251 436
515255 474
515259 521
515263 486
515267 435
515271 465
515275 522
515279 499
515283 442
515287 460
515291 523
515295 516
515299 452
515303 452
515307 516
515311 524
515315 464
515319 450
515323 508
515327 528
515331 471
515335 446
515339 499
515343 534
515347 485
515351 450
515355 501
515359 550
515363 513
515367 465
515371 501
515375 555
515379 528
515383 472
515387 495
515391 554
515395 538
515399 475
515403 478
515407 537
515411 537
515415 476
515419 466
515424 524
515428 534
515432 469
515436 444
515440 495
515444 518
515448 461
515452 426
515456 474
515460 513
515464 465
515468 413
515472 454
515476 504
515480 469
515484 410
515488 441
515492 501
515496 483
515500 423
515504 433
515508 490
515512 481
515516 413
515520 413
515524 482
515528 493
515532 430
515536 412
515540 475
515544 497
515548 441
515552 410
515556 468
515560 505
515564 457
515568 412
515572 461
515576 509
515580 470
515584 416
515588 457
515592 514
515596 493
515600 434
515604 449
515608 502
515612 485
515616 415
515620 426
515624 492
515629 486
515633 423
515637 426
515641 487
515645 489
515649 429
515653 416
515657 480
515661 493
515665 430
515669 404
515673 466
515677 498
515681 447
515685 404
515689 456
515693 498
515697 456
515701 401
515705 440
515709 489
515713 459
515717 399
515721 428
515725 487
515729 471
515733 410
515737 423
515741 486
515745 485
515749 420
515753 412
515757 475
515761 487
515765 428
515769 408
515773 472
515777 497
515781 439
515785 402
515789 456
515793 493
515797 445
515801 398
515805 444
515809 493
515813 454
515817 396
515821 430
515825 489
515829 470
515833 408
515837 426
515841 482
515845 469
515849 402
515853 405
515857 474
515861 481
515865 416
515869 406
515873 471
515877 488
515881 430
515885 403
515889 464
515893 498
515897 447
515901 406
515905 457
515910 504
515914 465
515918 416
515922 458
515926 509
515930 478
515934 422
515938 448
515942 508
515946 494
515950 430
515954 436
515958 495
515962 492
515966 427
515970 416
515974 480
515978 489
515982 430
515986 410
515990 472
515994 498
515998 441
516002 401
516006 450
516010 486
516014 447
516018 412
516022 475
516026 546
516030 535
516034 505
516038 554
516042 601
516046 559
516050 476
516054 468
516058 507
516062 482
516066 413
516070 421
516074 483
516078 480
516082 413
516086 403
516090 464
516094 476
516098 412
516102 391
516106 456
516110 485
516114 433
516118 396
516122 449
516126 488
516130 445
516134 398
516138 445
516142 494
516146 457
516150 398
516154 428
516159 485
516163 463
516167 399
516171 414
516175 482
516179 476
516183 412
516187 411
516191 478
516195 486
516199 424
516203 412
516207 509
516211 552
516215 489
516219 446
516223 487
516227 516
516231 465
516235 427
516239 475
516243 525
516247 483
516251 446
516255 494
516259 549
516263 518
516267 460
516271 482
516275 541
516279 525
516283 470
516287 484
516291 545
516295 542
516299 478
516303 476
516307 540
516311 550
516315 489
516319 470
516323 524
516327 545
516331 487
516335 454
516339 501
516343 535
516347 483
516351 437
516355 478
516359 526
516363 494
516367 442
516371 476
516375 535
516379 513
516383 452
516387 469
516391 531
516395 523
516399 465
516403 466
516407 528
516411 534
516415 472
516419 459
516423 521
516427 543
516431 486
516435 459
516439 513
516443 550
516448 495
516452 468
516456 521
516460 559
516464 512
516468 469
516472 512
516476 557
516480 523
516484 473
516488 506
516492 562
516496 541
516500 483
516504 500
516508 561
516512 552
516516 489
516520 494
516524 558
516528 567
516532 507
516536 497
516540 562
516544 585
516548 525
516552 496
516556 552
516560 584
516564 535
516568 501
516572 553
516576 597
516580 555
516584 511
516588 552
516592 606
516596 577
516600 521
516604 546
516608 613
516612 601
516616 541
516620 545
516624 604
516628 600
516632 537
516637 535
516641 601
516645 614
516649 555
516653 535
516657 592
516661 618
516665 565
516669 530
516673 580
516677 619
516681 574
516685 534
516689 580
516693 629
516697 594
516701 540
516705 569
516709 626
516713 606
516717 547
516721 565
516725 627
516729 624
516733 565
516737 569
516741 636
516745 648
516749 591
516753 582
516757 644
516761 666
516765 608
516769 582
516773 638
516777 673
516781 622
516785 583
516789 627
516793 672
516797 633
516801 588
516805 626
516809 682
516813 656
516817 600
516821 620
516825 680
516829 666
516833 603
516837 606
516841 665
516845 665
516849 602
516853 590
516857 652
516861 666
516865 608
516869 589
516873 648
516877 678
516881 625
516885 590
516889 636
516893 667
516897 622
516901 585
516905 640
516909 713
516913 706
516917 677
516921 735
516925 807
516929 783
516933 701
516937 675
516941 708
516945 681
516949 615
516953 615
516957 682
516961 691
516965 628
516969 614
516973 672
516977 689
516982 628
516986 600
516990 658
516994 701
516998 648
517002 603
517006 644
517010 690
517014 652
517018 608
517022 646
517026 696
517030 662
517034 607
517038 633
517042 690
517046 672
517050 613
517054 625
517058 688
517062 680
517066 621
517070 627
517074 690
517078 693
517082 633
517086 625
517090 690
517094 716
517098 656
517102 628
517106 684
517110 723
517114 672
517118 633
517122 677
517126 725
517130 682
517134 637
517138 675
517142 735
517147 708
517151 648
517155 672
517159 737
517163 725
517167 665
517171 676
517175 745
517179 746
517183 681
517187 675
517191 738
517195 747
517199 679
517203 655
517207 713
517211 737
517215 675
517219 637
517223 685
517227 725
517231 673
517235 624
517239 658
517243 709
517247 668
517251 612
517255 637
517259 693
517263 672
517267 613
517271 632
517275 701
517279 687
517283 621
517287 620
517291 679
517295 682
517299 620
517303 609
517307 675
517311 698
517315 639
517319 612
517323 664
517327 693
517331 641
517335 604
517339 651
517343 693
517347 649
517351 600
517355 634
517359 687
517363 662
517367 608
517371 633
517375 691
517379 675
517383 615
517387 625
517391 686
517395 685
517399 621
517403 615
517407 673
517411 682
517415 624
517419 605
517423 664
517427 693
517431 643
517435 637
517439 705
517443 739
517447 676
517451 622
517455 657
517459 709
517464 667
517468 613
517472 642
517476 692
517480 667
517484 608
517488 626
517492 686
517496 675
517500 614
517504 617
517508 680
517512 685
517516 624
517520 613
517524 670
517528 685
517532 625
517536 597
517540 650
517544 679
517548 628
517552 594
517556 642
517560 682
517564 638
517568 590
517572 627
517576 678
517580 648
517584 595
517588 620
517592 679
517596 664
517600 603
517604 612
517608 674
517612 674
517616 610
517620 606
517624 666
517628 678
517632 617
517636 598
517640 655
517644 679
517648 624
517652 591
517656 644
517660 677
517664 627
517668 586
517672 628
517677 679
517681 641
517685 600
517689 640
517693 692
517697 661
517701 605
517705 630
517709 689
517713 668
517717 613
517721 625
517725 681
517729 672
517733 606
517737 601
517741 661
517745 667
517749 607
517753 590
517757 648
517761 667
517765 608
517769 573
517773 619
517777 649
517781 608
517785 584
517789 648
517793 727
517797 720
517801 690
517805 741
517809 795
517813 754
517817 656
517821 639
517825 675
517829 652
517833 589
517837 596
517841 661
517845 662
517849 598
517853 586
517857 645
517861 665
517865 607
517869 579
517873 629
517877 661
517882 607
517886 579
517890 632
517894 669
517898 620
517902 577
517906 618
517910 666
517914 629
517918 579
517922 607
517926 664
517930 644
517934 588
517938 604
517942 665
517946 658
517950 600
517954 601
517958 666
517962 676
517966 618
517970 606
517974 667
517978 691
517982 637
517986 614
517990 672
517994 711
517998 660
518002 619
518006 663
518010 711
518014 672
518018 629
518022 672
518026 734
518030 706
518034 646
518038 668
518042 735
518046 724
518050 679
518054 703
518058 766
518062 762
518066 690
518070 677
518074 740
518078 757
518082 691
518086 663
518090 718
518094 745
518098 684
518102 645
518106 689
518110 727
518114 675
518118 627
518122 664
518126 714
518130 675
518134 620
518138 646
518142 706
518146 680
518150 619
518154 630
518158 690
518162 685
518166 624
518170 621
518174 681
518178 690
518182 629
518186 615
518190 675
518194 701
518198 644
518202 616
518206 669
518210 709
518214 656
518218 615
518223 657
518227 709
518231 669
518235 619
518239 653
518243 710
518247 679
518251 619
518255 651
518259 738
518263 748
518267 706
518271 711
518275 754
518279 735
518283 658
518287 648
518291 717
518295 724
518299 655
518303 636
518307 691
518311 716
518315 657
518319 629
518323 682
518327 722
518331 668
518335 627
518339 673
518343 725
518347 684
518351 629
518355 657
518359 713
518363 685
518367 628
518371 645
518375 709
518379 694
518383 633
518387 637
518391 701
518395 704
518400 639
518403 632
518407 693
518411 715
518415 652
518419 625
518423 678
518427 712
518431 655
518435 619
518439 665
518443 710
518447 664
518451 616
518455 653
518459 710
518464 676
518468 620
518472 643
518476 703
518480 682
518484 625
518488 638
518492 703
518496 696
518500 634
518504 629
518508 692
518512 711
518516 648
518520 628
518524 685
518528 713
518532 654
518536 622
518540 674
518544 716
518548 669
518552 626
518556 665
518560 716
518564 676
518568 627
518572 656
518576 718
518580 694
518584 637
518588 653
518592 720
518596 714
518600 651
518604 653
518608 717
518612 725
518616 657
518620 640
518624 696
518628 720
518632 657
518636 627
518640 677
518644 712
518648 657
518652 619
518656 668
518660 715
518664 668
518668 621
518672 656
518676 709
518680 673
518684 615
518688 633
518692 691
518696 681
518700 636
518704 667
518708 760
518712 787
518716 756
518720 769
518724 830
518728 823
518732 722
518736 661
518740 696
518744 720
518748 665
518752 639
518757 690
518761 727
518765 674
518769 629
518773 670
518777 720
518781 680
518785 628
518789 656
518793 716
518797 691
518801 633
518805 649
518809 713
518813 708
518817 646
518821 652
518825 720
518829 726
518833 664
518837 654
518841 718
518845 739
518849 679
518853 655
518857 716
518861 750
518865 701
518869 661
518873 711
518877 758
518881 721
518885 672
518889 710
518893 764
518897 739
518901 679
518905 709
518909 766
518913 750
518917 691
518921 712
518925 783
518929 792
518933 738
518937 736
518941 796
518945 807
518949 748
518953 730
518957 790
518961 817
518965 764
518969 736
518973 788
518977 830
518981 786
518985 746
518989 790
518993 836
518997 797
519001 740
519005 766
519009 818
519013 789
519017 728
519021 745
519025 801
519029 792
519033 728
519037 729
519041 792
519045 795
519049 732
519054 716
519058 777
519062 797
519066 739
519070 716
519074 774
519078 810
519082 762
519086 724
519090 768
519094 813
519098 773
519102 725
519106 758
519110 812
519114 785
519118 728
519122 749
519126 811
519130 801
519134 745
519138 754
519142 817
519146 818
519150 758
519154 750
519158 810
519162 825
519166 769
519170 750
519174 807
519178 835
519182 782
519186 748
519190 799
519194 842
519198 796
519202 749
519206 786
519210 835
519214 802
519218 750
519222 777
519226 835
519230 817
519234 758
519238 769
519242 831
519246 828
519250 768
519254 764
519258 824
519262 833
519266 772
519270 754
519274 813
519278 840
519282 784
519286 756
519290 809
519294 846
519298 798
519302 756
519306 798
519310 846
519314 807
519318 757
519322 789
519326 846
519330 820
519334 760
519338 777
519342 835
519346 822
519350 762
519354 764
519358 824
519362 825
519366 764
519370 753
519374 816
519378 835
519382 780
519386 754
519390 809
519394 840
519398 785
519402 747
519406 794
519410 835
519414 795
519419 749
519422 787
519426 840
519430 809
519434 754
519438 776
519443 833
519447 814
519451 752
519455 762
519459 823
519463 822
519467 760
519471 754
519475 813
519479 825
519483 766
519487 748
519491 805
519495 833
519499 778
519503 745
519507 795
519511 834
519515 788
519519 746
519523 787
519527 836
519531 804
519535 754
519539 785
519543 842
519547 818
519551 758
519555 769
519559 828
519563 819
519567 758
519571 758
519575 814
519579 817
519583 752
519587 739
519591 800
519595 824
519599 764
519603 734
519607 783
519611 816
519615 769
519619 727
519623 764
519627 794
519631 744
519635 691
519639 737
519643 805
519647 800
519651 772
519655 822
519659 907
519663 903
519667 828
519671 797
519675 811
519679 774
519683 691
519687 684
519691 757
519695 775
519699 710
519703 675
519707 726
519711 748
519715 688
519719 651
519723 700
519727 737
519731 685
519735 637
519739 674
519743 725
519747 685
519751 627
519755 651
519759 708
519763 681
519767 620
519771 632
519775 693
519779 690
519783 627
519787 622
519791 681
519795 690
519799 629
519804 614
519808 674
519812 694
519816 637
519820 605
519824 654
519828 689
519832 639
519836 598
519840 642
519844 687
519848 650
519852 598
519856 627
519860 677
519864 651
519868 592
519872 610
519876 673
519880 663
519884 605
519888 609
519892 670
519896 672
519900 609
519904 601
519908 662
519912 681
519916 625
519920 600
519924 653
519928 680
519932 626
519936 583
519940 624
519944 661
519948 612
519952 558
519956 588
519960 633
519964 600
519968 537
519972 556
519976 609
519980 590
519984 528
519988 533
519992 591
519996 588
520000 526
520004 519
520008 577
520012 586
520016 526
520020 507
520024 561
520028 584
520032 526
520036 493
520040 543
520044 582
520048 533
520052 485
520056 520
520060 562
520064 524
520068 468
520072 494
520076 547
520080 525
520084 465
520088 478
520092 537
520096 533
520100 474
520104 474
520108 535
520112 544
520116 484
520120 469
520124 526
520128 547
520132 490
520136 465
520140 523
520144 559
520148 506
520152 457
520156 496
520160 536
520164 496
520168 447
520173 477
520177 529
520181 501
520185 444
520189 464
520193 523
520197 509
520201 448
520205 457
520209 521
520213 523
520217 462
520221 456
520225 516
520229 532
520233 474
520237 452
520241 512
520245 544
520249 490
520253 458
520257 510
520261 554
520265 508
520269 462
520273 501
520277 554
520281 521
520285 466
520289 493
520293 549
520297 530
520301 469
520305 478
520309 536
520313 530
520317 465
520321 461
520325 521
520329 526
520333 464
520337 447
520341 505
520345 528
520349 478
520353 458
520357 513
520361 541
520365 485
520369 446
520373 490
520377 533
520381 487
520385 436
520389 465
520393 512
520397 478
520401 416
520405 440
520409 497
520413 483
520417 424
520421 433
520425 496
520429 495
520433 433
520437 426
520442 485
520446 495
520450 434
520454 409
520458 470
520462 499
520466 448
520470 413
520474 466
520478 508
520482 465
520486 422
520490 461
520494 507
520498 469
520502 410
520506 440
520510 496
520514 471
520518 406
520522 421
520526 477
520530 463
520534 396
520538 397
520542 464
520546 471
520550 403
520554 384
520558 441
520562 461
520566 396
520570 357
520574 401
520578 440
520582 401
520586 379
520590 453
520594 528
520598 521
520602 496
520606 535
520610 576
520614 512
520618 406
520622 394
520626 446
520630 435
520634 375
520638 381
520642 441
520646 437
520650 366
520654 356
520658 417
520662 437
520666 374
520670 350
520674 405
520678 437
520682 378
520686 343
520690 393
520694 437
520698 387
520702 340
520706 376
520710 430
520714 396
520718 342
520722 367
520726 427
520730 403
520734 343
520738 353
520742 413
520746 405
520750 344
520754 343
520758 406
520762 416
520766 355
520770 338
520774 398
520778 428
520783 368
520787 339
520791 392
520795 434
520799 382
520803 340
520807 385
520811 439
520815 402
520819 353
520823 382
520827 442
520831 417
520835 362
520839 382
520843 448
520847 439
520851 374
520855 381
520859 447
520863 447
520867 378
520871 366
520875 429
520879 446
520883 380
520887 354
520891 405
520895 433
520899 373
520903 330
520907 376
520911 415
520915 368
520919 320
520923 361
520927 413
520931 378
520935 319
520939 339
520943 396
520947 378
520951 319
520955 327
520959 387
520963 381
520967 320
520971 316
520975 377
520979 387
520983 325
520987 303
520991 358
520995 382
520999 326
521003 294
521007 346
521011 386
521015 339
521019 294
521023 336
521027 384
521031 349
521035 301
521039 334
521043 388
521047 363
521051 303
521056 330
521060 385
521064 363
521068 308
521072 329
521076 392
521080 381
521084 318
521088 321
521092 382
521096 382
521100 319
521104 307
521108 368
521112 386
521116 327
521120 303
521124 357
521128 389
521132 339
521136 304
521140 354
521144 398
521148 356
521152 309
521156 346
521160 399
521164 369
521168 319
521172 344
521176 401
521180 382
521184 326
521189 339
521193 400
521197 396
521201 331
521205 327
521209 387
521213 398
521217 338
521221 319
521225 376
521229 398
521233 341
521237 310
521241 363
521245 402
521249 355
521253 310
521257 349
521261 394
521265 357
521269 307
521273 337
521277 390
521281 363
521285 300
521289 316
521293 376
521297 366
521301 304
521305 306
521309 365
521313 367
521317 304
521321 291
521325 353
521329 376
521333 321
521337 297
521341 350
521345 382
521349 328
521353 285
521357 329
521361 373
521365 331
521369 282
521373 319
521377 373
521381 343
521385 286
521389 308
521393 369
521397 358
521401 300
521405 307
521409 367
521413 365
521417 302
521421 295
521425 357
521429 373
521433 310
521437 288
521441 341
521445 367
521449 312
521453 276
521457 325
521461 365
521466 313
521469 269
521473 313
521478 360
521482 320
521486 259
521490 283
521494 342
521498 331
521502 296
521506 339
521510 428
521514 441
521518 392
521522 398
521526 450
521530 430
521534 336
521538 300
521542 342
521546 350
521550 291
521554 265
521558 319
521562 349
521566 296
521570 257
521574 305
521578 348
521582 307
521586 256
521590 297
521594 354
521598 327
521602 269
521606 290
521610 348
521614 331
521618 273
521622 280
521626 337
521630 330
521634 267
521638 262
521642 326
521646 339
521650 280
521654 261
521658 321
521662 349
521666 297
521670 267
521674 321
521678 354
521682 303
521686 264
521690 310
521694 355
521698 316
521702 269
521706 306
521710 360
521714 331
521718 277
521722 305
521727 368
521731 360
521735 305
521739 316
521743 381
521747 382
521751 321
521755 318
521759 381
521763 396
521767 338
521771 318
521775 376
521779 406
521783 355
521787 325
521791 376
521795 415
521799 368
521803 320
521807 357
521811 403
521815 366
521819 308
521823 329
521827 381
521831 358
521835 297
521839 307
521843 364
521847 354
521851 290
521855 288
521859 349
521863 356
521867 297
521871 283
521875 344
521879 364
521883 308
521887 281
521891 338
521895 375
521899 327
521903 288
521907 333
521911 379
521915 340
521919 286
521923 317
521927 374
521931 351
521935 296
521939 317
521943 375
521947 360
521951 298
521955 305
521959 367
521963 373
521967 309
521971 300
521975 362
521979 381
521983 325
521987 302
521991 360
521995 391
521999 340
522003 304
522007 351
522011 396
522015 356
522019 312
522023 349
522027 400
522031 367
522035 312
522039 338
522043 397
522047 382
522051 325
522055 336
522059 396
522063 390
522067 326
522071 320
522075 380
522080 387
522084 325
522088 306
522092 363
522096 387
522100 333
522104 306
522108 363
522112 402
522116 355
522120 310
522124 349
522128 392
522132 354
522136 307
522140 341
522144 396
522148 367
522152 307
522156 327
522160 388
522164 377
522168 319
522172 326
522176 385
522180 382
522184 321
522188 321
522192 387
522196 402
522200 341
522204 317
522208 374
522212 402
522216 349
522220 313
522224 360
522228 400
522232 360
522236 318
522240 360
522244 412
522248 378
522252 326
522256 361
522260 428
522264 406
522268 345
522272 356
522276 424
522280 415
522285 351
522289 362
522293 427
522297 428
522301 367
522305 364
522309 428
522313 439
522317 375
522321 356
522325 414
522329 445
522333 386
522337 350
522341 398
522345 437
522349 388
522353 344
522357 382
522361 433
522365 394
522369 341
522373 369
522377 433
522381 411
522385 348
522389 354
522393 405
522397 396
522401 344
522405 366
522409 460
522413 499
522417 465
522421 468
522425 532
522429 542
522433 462
522437 397
522441 429
522445 466
522449 429
522453 386
522457 422
522461 457
522465 409
522469 356
522473 384
522477 437
522481 403
522485 344
522489 365
522493 427
522497 412
522501 351
522505 356
522509 415
522513 416
522517 355
522521 349
522525 412
522529 434
522533 374
522537 353
522541 410
522545 442
522550 386
522554 350
522558 399
522562 441
522566 392
522570 344
522574 385
522578 445
522582 412
522586 363
522590 392
522594 456
522598 438
522602 377
522606 393
522610 461
522614 459
522618 396
522622 394
522626 462
522630 475
522634 415
522638 402
522642 465
522646 492
522650 440
522654 412
522658 472
522662 512
522666 468
522670 429
522674 475
522678 523
522682 487
522686 436
522690 466
522694 523
522698 498
522702 445
522706 463
522710 519
522714 502
522718 438
522722 439
522726 497
522730 497
522734 434
522738 425
522742 487
522746 502
522750 441
522754 413
522758 470
522762 499
522766 447
522770 406
522774 457
522778 499
522782 459
522786 406
522790 448
522794 496
522798 463
522802 405
522806 435
522810 495
522814 477
522818 414
522822 427
522826 487
522830 484
522834 426
522838 422
522842 484
522846 495
522850 435
522854 414
522858 476
522862 504
522867 452
522871 425
522875 477
522879 514
522883 469
522887 427
522891 469
522895 513
522899 470
522903 416
522907 454
522911 512
522915 489
522919 436
522923 458
522927 516
522931 499
522935 437
522939 441
522943 504
522947 508
522951 449
522955 439
522959 496
522963 512
522967 456
522971 436
522975 493
522979 523
522983 471
522987 437
522991 486
522995 529
522999 485
523003 439
523007 483
523011 540
523015 506
523019 450
523023 470
523027 526
523031 510
523035 452
523039 464
523043 525
523047 521
523051 460
523055 454
523059 513
523063 525
523067 468
523071 454
523075 514
523079 540
523083 481
523087 447
523091 497
523095 534
523099 488
523104 449
523108 497
523112 533
523116 488
523120 449
523124 493
523128 540
523132 504
523136 449
523140 478
523144 536
523148 516
523152 457
523156 470
523160 531
523164 522
523168 460
523172 462
523176 523
523180 528
523184 466
523188 452
523192 512
523196 532
523200 472
523204 447
523208 505
523212 542
523216 495
523220 454
523224 498
523228 541
523232 502
523236 452
523240 483
523244 532
523248 500
523253 444
523257 495
523261 567
523265 541
523269 466
523273 466
523277 520
523281 512
523285 449
523289 442
523293 498
523297 502
523301 435
523305 404
523309 463
523313 495
523317 456
523321 448
523325 526
523329 594
523333 572
523337 543
523341 579
523345 600
523349 523
523353 440
523357 454
523361 502
523365 481
523369 427
523373 441
523377 495
523381 480
523385 410
523389 412
523393 478
523397 485
523401 423
523405 406
523409 470
523413 489
523417 438
523421 412
523425 466
523429 495
523433 444
523437 403
523441 453
523445 498
523449 458
523453 403
523457 441
523461 495
523465 468
523469 410
523473 437
523477 498
523481 486
523485 428
523489 437
523493 498
523497 497
523501 437
523505 432
523509 494
523513 507
523517 450
523521 433
523525 488
523529 514
523533 461
523537 433
523541 486
523545 529
523549 486
523553 446
523557 487
523561 537
523565 507
523569 460
523573 488
523577 543
523581 520
523586 466
523590 517
523594 614
523598 610
523602 535
523606 512
523610 554
523614 553
523618 490
523622 476
523626 532
523630 546
523634 481
523638 447
523642 496
523646 525
523650 475
523654 435
523658 478
523662 521
523666 477
523670 428
523674 462
523678 516
523682 489
523686 436
523690 457
523694 517
523698 504
523702 441
523706 448
523710 512
523714 516
523719 447
523722 450
523726 511
523730 513
523734 453
523738 448
523742 511
523746 528
523751 469
523755 446
523759 502
523763 535
523767 486
523771 453
523775 504
523779 546
523783 502
523787 450
523791 483
523795 532
523799 501
523803 447
523807 466
523811 523
523815 507
523819 448
523823 458
523827 519
523831 522
523835 465
523839 461
523843 521
523847 531
523851 468
523855 449
523859 506
523863 532
523867 478
523871 449
523875 499
523879 535
523883 489
523887 449
523891 494
523895 545
523899 517
523903 470
523907 500
523911 555
523915 535
523919 483
523923 507
523927 570
523931 564
523935 505
523939 508
523943 571
523947 581
523951 525
523955 519
523959 585
523963 613
523967 561
523971 538
523975 598
523979 638
523983 597
523987 562
523991 608
523995 657
523999 627
524003 590
524007 634
524011 696
524015 677
524019 626
524023 650
524027 721
524031 724
524035 674
524039 689
524043 760
524047 770
524051 715
524055 712
524059 783
524063 813
524067 768
524071 756
524075 820
524079 861
524083 821
524087 799
524091 858
524095 907
524099 873
524103 832
524107 877
524111 937
524115 921
524119 885
524124 924
524128 994
524132 981
524136 928
524140 948
524144 1014
524148 1014
524152 972
524156 986
524160 1024
524164 1024
524168 1005
524172 1005
524176 1024
524180 1024
524184 1024
524188 1024
524192 1024
524196 1024
524200 1024
524204 1024
524208 1024
524212 1024
524216 1024
524220 1024
524224 1024
524228 1024
524232 1024
524236 1024
524240 1024
524244 1024
524248 1024
524252 1024
524256 1024
524260 1024
524264 1024
524268 1024
524272 1024
524276 1024
524280 1024
524284 1024
524288 1024
524292 1024
524296 1024
524300 1024
524304 1024
524308 1024
524312 1024
524316 1024
524320 1024
524324 1024
524328 1024
524333 1024
524337 1024
524341 1024
524345 1024
524349 1024
524353 1024
524357 1024
524361 1024
524365 1024
524369 1024
524373 1024
524377 1024
524381 1024
524385 1024
524389 1024
524393 1024
524397 1024
524401 1024
524405 1024
524409 1024
524413 1024
524417 1024
524421 1024
524425 1024
524429 1024
524433 1024
524437 1024
524441 1024
524445 1024
524449 1024
524453 1024
524457 1024
524461 1024
524465 1024
524469 1024
524473 1024
524477 1024
524481 1024
524485 1024
524489 1024
524493 1024
524497 1024
524501 1024
524505 1024
524509 1024
524513 1024
524517 1024
524521 1024
524525 1024
524529 1024
524533 1024
524537 1024
524541 1024
524545 1024
524549 1024
524553 1024
524557 1024
524561 1024
524565 1024
524569 1024
524573 1024
524577 1024
524581 1024
524585 1024
524589 1024
524593 1024
524597 1024
524602 1024
524606 1024
524610 1024
524614 1024
524618 1024
524622 1024
524626 1024
524630 1024
524634 1024
524638 1024
524642 1024
524646 1024
524650 1024
524654 1024
524658 1024
524662 1024
524666 1024
524670 1024
524674 1024
524678 1024
524682 1024
524686 1024
524690 1024
524694 1024
524698 1024
524702 1024
524706 1024
524710 1024
524714 1024
524718 1024
524722 1024
524726 1024
524730 1024
524734 1024
524738 1024
524742 1024
524746 1024
524750 1024
524754 1024
524758 1024
524762 1024
524766 1024
524770 1024
524774 1024
524778 1024
524782 1024
524786 1024
524790 1024
524794 1024
524798 1024
524802 1024
524806 1024
524810 1024
524814 1024
524818 1024
524822 1024
524826 1024
524830 1024
524834 1024
524838 1024
524842 1024
524846 1024
524850 1024
524854 1024
524858 1024
524862 1024
524866 1024
524870 1024
524874 1024
524878 969
524882 750
524886 474
524890 241
524894 2
524898 2
524902 2
524907 2
524911 2
524915 2
524919 1
524923 2
524927 2
524931 2
524935 2
524939 2
524943 2
524947 2
524951 2
524955 2
524959 2
524963 2
524967 2
524971 2
524975 2
524979 2
524983 2
524987 2
524991 2
524995 2
524999 2
525003 2
525007 2
525011 2
525015 2
525019 2
525023 2
525027 2
525031 2
525035 2
525039 2
525043 1
525047 2
525051 2
525055 2
525059 2
525063 2
525067 2
525071 2
525075 2
525079 2
525083 2
525087 2
525091 2
525095 2
525099 2
525103 2
525108 2
525112 2
525116 2
525120 2
525124 2
525128 2
525132 2
525136 2
525140 2
525144 2
525148 2
525152 2
525156 2
525160 2
525164 2
525168 2
525172 2
525176 2
525180 2
525184 2
525188 2
525192 2
525196 2
525200 2
525204 2
525208 2
525212 2
525216 2
525220 2
525224 2
525228 2
525232 2
525236 2
525240 2
525244 2
525248 2
525252 2
525256 2
525260 2
525264 2
525268 2
525272 2
525276 2
525280 2
525284 2
525288 2
525292 2
525296 2
525300 2
525304 2
525308 2
525312 2
525316 2
525320 2
525324 2
525328 2
525332 2
525336 2
525340 2
525344 2
525348 2
525352 2
525357 1
525361 2
525365 2
525369 2
525373 2
525377 2
525381 2
525385 2
525389 2
525393 78
525397 620
525401 1024
525405 1024
525409 916
525413 482
525417 4
525421 2
525425 2
525429 2
525433 2
525437 2
525441 2
525445 2
525449 2
525453 2
525457 2
525461 2
525465 2
525469 2
525473 2
525477 2
525481 2
525485 2
525489 2
525493 2
525497 2
525501 2
525505 2
525509 2
525513 2
525517 2
525521 2
525525 194
525529 1024
525533 1024
525537 1024
525541 1024
525545 1024
525549 1024
525553 1024
525557 1024
525561 1024
525565 1024
525569 1024
525573 1024
525577 1024
525581 1024
525585 1024
525589 1024
525593 1024
525597 1008
525601 745
525605 519
525609 456
525613 490
525617 540
525621 562
525625 561
525629 552
525633 544
525637 543
525641 545
525645 545
525649 545
525653 545
525657 545
525661 545
525665 543
525669 544
525673 544
525678 545
525682 544
525686 543
525690 544
525694 544
525698 543
525702 543
525706 544
525710 544
525714 543
525718 543
525722 544
525726 546
525730 537
525734 495
525738 465
525742 497
525746 540
525750 526
525754 494
525758 512
525762 549
525766 538
525770 523
525774 570
525778 637
525782 658
525786 663
525790 716
525794 801
525798 844
525802 842
525806 868
525811 936
525815 974
525819 975
525823 1008
525827 1024
525831 1024
525835 1024
525839 1024
525843 1024
525847 1024
525851 1024
525855 1024
525859 1024
525863 1024
525867 1024
525871 1024
525875 1024
525879 1024
525883 1024
525887 1024
525891 1024
525895 1024
525899 1024
525903 1024
525907 1024
525911 1024
525915 1024
525919 1024
525923 1024
525927 1024
525931 1024
525935 1024
525939 1024
525943 1024
525947 1024
525951 1024
525955 1024
525959 1024
525963 1024
525967 1024
525971 1024
525975 1024
525979 1024
525983 1024
525987 1024
525991 1024
525995 1024
525999 1024
526003 1024
526007 1024
526011 1024
526015 1024
526019 1024
526023 952
526027 675
526031 494
526035 462
526039 507
526043 550
526047 566
526051 559
526055 550
526059 549
526063 550
526067 552
526071 552
526075 552
526079 549
526083 547
526087 549
526091 552
526095 550
526099 548
526103 546
526107 546
526111 553
526115 556
526119 555
526123 553
526127 552
526131 549
526135 547
526139 546
526143 546
526147 540
526151 523
526155 525
526159 538
526164 526
526168 454
526172 351
526176 262
526180 226
526184 260
526188 321
526192 401
526196 447
526200 426
526204 363
526208 330
526212 326
526216 300
526220 236
526224 163
526228 90
526232 2
526236 2
526240 2
526244 2
526248 2
526252 1
526256 2
526260 2
526264 4
526268 86
526272 196
526276 302
526280 368
526284 382
526288 382
526292 413
526296 453
526300 464
526304 459
526308 476
526312 519
526316 545
526320 549
526324 570
526328 607
526332 622
526336 574
526340 484
526344 403
526348 345
526352 278
526356 206
526360 76
526364 2
526368 2
526372 2
526376 2
526381 2
526385 2
526389 2
526393 2
526397 2
526401 2
526405 2
526409 2
526413 2
526417 2
526421 2
526425 2
526429 2
526433 2
526437 2
526441 2
526445 2
526449 2
526453 2
526457 2
526461 2
526465 2
526469 2
526473 2
526477 2
526481 2
526485 2
526489 2
526493 2
526497 2
526501 2
526505 2
526509 2
526513 2
526517 2
526521 2
526525 2
526529 2
526533 2
526537 2
526541 2
526545 2
526549 2
526553 2
526557 2
526561 2
526565 2
526569 2
526573 2
526577 2
526581 2
526586 1
526589 2
526593 2
526597 2
526601 2
526606 2
526610 2
526614 2
526618 2
526622 2
526626 2
526630 2
526634 2
526638 2
526642 2
526646 2
526650 2
526654 2
526658 2
526662 2
526666 2
526670 2
526674 2
526678 2
526682 2
526686 2
526690 2
526694 2
526698 2
526702 2
526706 2
526710 2
526714 2
526718 2
526722 2
526726 2
526730 2
526734 2
526738 2
526742 2
526746 2
526750 2
526754 2
526758 2
526762 2
526766 2
526770 2
526774 2
526778 2
526782 2
526786 2
526790 2
526794 2
526798 2
526802 2
526806 2
526810 2
526814 2
526818 2
526822 2
526826 2
526830 2
526834 2
526838 2
526842 2
526846 2
526850 2
526854 2
526858 2
526862 2
526866 2
526870 2
526874 2
526878 2
526882 2
526886 2
526890 2
526894 2
526898 2
526902 2
526906 2
526910 2
526914 2
526918 1
526922 2
526926 2
526930 2
526934 2
526938 2
526942 2
526946 2
526950 2
526954 2
526958 125
526962 433
526966 607
526971 626
526975 577
526979 530
526983 512
526987 518
526991 531
526995 538
526999 540
527003 540
527007 540
527011 540
527015 538
527019 538
527024 541
527028 540
527032 541
527036 541
527040 542
527044 542
527048 542
527052 542
527056 543
527060 543
527064 542
527068 542
527072 543
527076 543
527080 505
527084 364
527088 170
527092 3
527096 2
527100 2
527104 2
527108 2
527112 2
527116 2
527120 2
527124 2
527128 2
527132 2
527136 2
527140 2
527144 2
527148 2
527152 2
527156 2
527160 2
527164 2
527168 2
527172 2
527176 2
527181 2
527185 237
527189 1024
527193 1024
527197 1024
527201 1024
527205 1024
527209 1024
527213 1024
527217 1024
527221 1024
527225 1024
527229 1024
527233 1024
527237 1024
527241 1024
527245 1024
527249 1024
527253 907
527257 628
527261 470
527265 460
527269 508
527273 546
527277 558
527281 553
527285 546
527289 546
527293 550
527297 552
527301 548
527305 546
527309 546
527313 545
527317 545
527321 544
527325 542
527329 538
527333 537
527337 540
527341 541
527345 540
527349 536
527353 536
527357 537
527361 536
527365 534
527369 533
527373 534
527377 536
527381 478
527385 80
527389 2
527393 2
527397 2
527401 2
527405 2
527409 2
527413 2
527417 2
527421 2
527425 2
527429 2
527433 2
527437 2
527441 2
527445 2
527449 2
527453 2
527457 2
527461 2
527465 2
527469 2
527473 128
527477 441
527481 617
527485 632
527489 579
527493 535
527497 523
527501 530
527505 540
527509 542
527513 540
527517 536
527521 536
527525 537
527529 536
527533 535
527537 541
527542 545
527546 545
527550 541
527554 536
527558 536
527562 537
527566 540
527570 540
527574 540
527578 540
527582 540
527586 541
527591 542
527595 540
527599 488
527603 354
527607 242
527611 174
527615 80
527619 2
527623 2
527627 2
527631 2
527635 2
527639 2
527643 2
527647 2
527651 2
527655 2
527659 2
527663 2
527667 2
527671 2
527675 2
527679 2
527683 2
527687 1
527691 2
527695 2
527699 2
527703 2
527707 2
527711 2
527715 2
527719 2
527723 2
527727 2
527731 2
527735 2
527739 2
527743 2
527747 2
527751 2
527755 1
527759 2
527763 2
527767 2
527771 2
527775 2
527779 2
527783 2
527787 2
527791 2
527795 2
527799 2
527803 2
527807 2
527811 2
527815 2
527819 2
527823 2
527827 2
527831 2
527835 2
527839 2
527843 2
527847 2
527851 2
527856 2
527860 2
527864 2
527868 2
527872 2
527876 2
527880 2
527884 2
527888 2
527892 2
527896 2
527900 88
527904 237
527908 429
527912 622
527916 754
527920 819
527924 868
527928 926
527932 914
527936 804
527940 524
527944 4
527948 2
527952 2
527956 2
527960 2
527964 2
527968 2
527972 2
527976 2
527980 2
527984 2
527988 2
527992 2
527996 2
528000 2
528004 2
528008 2
528012 2
528016 2
528020 2
528024 2
528028 2
528032 2
528036 2
528040 2
528044 2
528048 2
528052 2
528056 2
528060 2
528064 2
528068 2
528072 2
528076 2
528080 2
528084 2
528088 2
528092 2
528096 2
528100 2
528104 2
528108 2
528112 2
528116 2
528120 2
528124 1
528128 2
528132 2
528136 2
528140 2
528144 2
528148 2
528152 2
528156 2
528160 2
528164 2
528168 2
528172 2
528176 2
528180 2
528184 2
528188 2
528192 2
528196 2
528200 2
528204 2
528208 2
528212 2
528216 2
528220 2
528224 2
528228 2
528232 2
528236 2
528240 2
528244 2
528248 2
528253 1
528257 1
528261 2
528265 2
528269 2
528273 2
528277 2
528281 2
528285 2
528289 2
528293 2
528297 2
528301 2
528305 2
528309 2
528313 2
528317 2
528321 2
528325 2
528329 1
528333 2
528337 2
528341 2
528345 2
528349 2
528353 2
528357 2
528361 2
528365 2
528369 2
528373 2
528377 2
528381 2
528385 2
528389 2
528393 2
528397 2
528401 2
528405 2
528409 2
528413 2
528417 2
528421 2
528425 2
528429 2
528433 2
528437 2
528441 2
528445 2
528449 2
528453 2
528457 2
528461 2
528465 2
528469 2
528473 2
528477 2
528481 2
528485 2
528489 1
528493 2
528497 2
528501 2
528505 2
528509 2
528513 2
528517 2
528521 2
528525 2
528529 2
528533 2
528537 2
528541 2
528545 2
528549 2
528553 2
528557 2
528561 2
528565 2
528569 2
528573 2
528577 2
528581 2
528585 2
528589 2
528593 2
528597 2
528601 2
528605 2
528609 2
528613 2
528617 2
528621 2
528625 2
528629 2
528634 1
528637 2
528642 2
528646 2
528650 2
528654 2
528658 2
528662 2
528666 2
528670 2
528674 2
528678 2
528682 2
528686 2
528690 2
528694 2
528698 2
528702 2
528706 2
528710 2
528714 2
528718 2
528722 2
528726 2
528730 2
528734 2
528738 2
528742 2
528746 2
528750 2
528754 2
528758 2
528762 2
528766 2
528770 2
528774 2
528778 2
528782 2
528786 2
528790 2
528794 2
528798 2
528802 2
528806 2
528810 2
528814 2
528818 2
528822 2
528826 2
528830 2
528834 2
528838 2
528842 1
528846 2
528850 2
528854 2
528858 2
528862 2
528866 2
528870 2
528874 2
528878 2
528882 2
528886 2
528890 2
528894 2
528898 2
528902 2
528906 2
528910 2
528914 10
528919 52
528922 105
528926 195
528930 264
528934 261
528938 236
528942 273
528946 344
528951 366
528955 348
528959 363
528963 410
528967 414
528971 381
528975 386
528979 427
528983 427
528987 374
528991 356
528995 397
528999 414
529003 376
529007 364
529011 415
529015 459
529019 438
529023 425
529027 475
529031 530
529035 519
529039 497
529043 541
529047 596
529051 595
529055 574
529059 613
529063 681
529067 701
529071 679
529075 709
529079 765
529083 785
529087 772
529091 806
529095 886
529099 939
529103 949
529107 994
529111 1024
529115 1024
529119 1024
529123 1024
529127 1024
529131 1024
529135 1024
529139 1024
529143 1024
529148 1024
529152 1024
529156 1024
529160 1024
529164 1024
529168 1024
529172 1024
529176 1024
529180 1024
529184 1024
529188 1024
529192 1024
529196 1024
529200 1024
529204 1024
529208 1024
529212 1024
529216 1024
529220 1024
529224 1024
529228 1024
529232 1024
529236 1024
529240 1024
529244 1024
529248 1024
529252 1024
529256 1024
529260 1024
529264 1024
529268 1024
529272 1024
529276 1024
529280 1024
529284 1024
529288 1024
529292 1024
529296 1024
529300 1024
529304 1024
529308 1024
529312 1024
529316 1024
529320 1024
529324 1024
529328 1024
529332 1024
529336 1024
529340 1024
529344 1024
529348 1024
529352 1024
529356 1024
529360 1024
529364 1024
529368 1024
529372 1024
529376 1024
529380 1024
529384 1024
529388 1024
529392 1024
529396 1024
529400 1024
529405 1024
529409 1024
529413 1024
529417 1024
529421 1024
529425 1024
529429 1024
529433 1024
529437 1024
529441 1024
529445 1024
529449 1024
529453 1024
529457 1024
529461 1024
529465 1024
529469 1024
529473 1024
529477 1024
529481 1024
529485 1024
529489 1024
529493 1024
529497 1024
529501 1024
529505 1024
529509 1024
529513 1024
529517 1024
529521 1024
529525 1024
529529 1024
529533 1024
529537 1024
529541 1024
529545 1024
529549 1024
529553 1024
529557 1024
529561 1024
529565 1024
529569 1024
529573 1024
529577 1024
529581 1024
529585 1024
529589 1024
529593 1024
529597 1024
529601 1024
529605 1024
529609 1024
529613 1024
529617 1024
529621 1024
529625 1024
529629 1024
529633 1024
529637 1024
529641 1024
529645 1024
529649 1024
529653 1024
529658 1024
529662 1024
529666 1024
529670 1024
529674 1024
529678 1024
529682 1024
529686 1024
529690 1024
529694 1024
529698 1024
529702 1024
529706 1024
529710 1024
529714 1024
529718 1024
529722 1024
529726 1024
529730 1024
529734 1024
529738 1024
529742 1024
529746 1024
529750 1024
529754 1024
529758 1024
529762 1024
529766 1024
529770 1024
529774 1024
529778 1024
529782 1024
529786 1024
529790 1024
529794 1024
529798 1024
529802 1024
529806 1024
529810 1024
529814 1024
529818 1024
529822 1024
529826 1024
529830 1024
529834 1024
529838 1024
529842 1024
529846 1024
529850 1024
529854 1024
529858 1024
529862 1024
529866 1024
529870 1024
529874 1024
529878 1024
529882 1024
529886 1024
529890 1024
529894 1024
529898 1024
529902 1024
529906 1024
529910 1024
529914 1024
529918 1024
529922 1024
529926 1024
529930 1024
529934 1024
529938 1024
529942 1024
529946 1024
529950 1024
529954 1024
529958 1024
529963 1024
529967 1024
529971 1024
529975 1024
529979 1024
529983 1024
529987 1024
529991 1024
529995 1024
529999 1024
530003 1024
530007 1024
530011 1024
530015 1024
530019 1024
530023 1024
530027 1024
530031 1024
530035 1024
530039 1024
530043 1024
530047 1024
530051 1024
530055 1024
530059 1024
530063 1024
530067 1024
530071 1024
530075 1024
530079 1024
530083 1024
530087 1024
530091 1024
530095 1024
530099 1024
530103 1024
530107 1024
530111 1024
530115 1024
530119 1024
530123 1024
530127 1024
530131 1024
530135 1024
530139 1024
530143 1024
530147 1024
530151 1024
530155 1024
530159 1024
530163 1024
530167 1024
530171 1024
530175 1024
530179 1024
530183 1024
530187 1024
530191 1024
530195 1024
530199 1024
530203 1024
530207 1024
530211 1024
530215 1024
530219 1024
530223 1024
530227 1024
530231 1024
530235 1024
530239 1024
530243 1024
530247 1024
530251 1024
530255 1024
530259 1024
530264 1024
530267 1024
530272 1024
530276 1024
530280 1024
530284 1024
530288 1024
530292 1024
530296 1024
530300 1024
530304 1024
530308 1024
530312 1024
530316 1024
530320 1024
530324 1024
530328 1024
530332 1024
530336 1024
530340 1024
530344 1024
530348 1024
530352 1024
530356 1024
530360 1024
530364 1024
530368 1024
530372 1024
530377 1024
530381 1024
530385 1024
530389 1024
530393 1024
530397 1024
530401 1024
530405 1024
530409 1024
530413 1024
530417 1024
530421 1024
530425 1024
530429 1024
530433 1024
530437 1024
530441 1024
530445 1024
530449 1024
530453 1024
530457 1024
530461 1024
530465 1024
530469 1024
530473 1024
530477 1024
530481 1024
530485 1024
530489 1024
530493 1024
530497 1024
530501 1024
530505 1024
530509 1024
530513 1024
530517 1024
530521 1024
530525 1024
530529 1024
530533 1024
530537 1024
530541 1024
530545 1024
530549 1024
530553 1024
530557 1024
530561 1024
530565 1024
530569 1024
530573 1024
530577 1024
530581 1024
530585 1024
530589 1024
530593 1024
530597 1024
530601 1024
530605 1024
530609 1024
530613 1024
530617 1024
530621 1024
530625 1024
530629 1024
530633 1024
530637 1024
530641 1024
530645 1024
530649 1024
530653 1024
530657 1024
530661 1024
530665 1024
530669 1024
530673 1024
530677 1024
530681 1024
530685 1024
530689 1024
530693 1024
530697 1024
530701 1024
530705 1024
530709 1024
530713 1024
530717 1024
530721 1024
530725 1024
530729 1024
530734 1024
530738 1024
530742 1024
530746 1024
530750 1024
530754 1024
530758 1024
530762 1024
530766 1024
530770 1024
530774 1024
530778 1024
530782 1024
530786 1024
530790 1024
530794 1024
530798 1024
530802 1024
530806 1024
530810 1024
530814 1024
530818 1024
530822 1024
530826 1024
530830 1024
530834 1024
530838 1024
530842 1024
530846 1024
530850 1024
530854 1024
530858 1024
530862 1024
530866 1024
530870 1024
530874 1024
530878 1024
530882 1024
530886 1024
530890 1024
530894 1024
530898 1024
530902 1024
530906 1024
530910 1024
530914 1024
530918 1024
530922 1024
530926 1024
530930 1024
530934 1024
530938 1024
530942 1024
530946 1024
530950 1024
530954 1024
530958 1024
530962 1024
530966 1024
530970 1024
530974 1024
530978 1024
530982 1024
530986 1024
530990 1024
530995 1024
530998 1024
531002 1024
531006 1024
531010 1024
531014 1024
531018 1024
531022 1024
531026 1024
531030 1024
531035 1024
531039 1024
531043 1024
531047 1024
531051 1024
531055 1024
531059 1024
531063 1024
531067 1024
531071 1024
531075 1024
531079 1024
531083 1024
531087 1024
531091 1024
531095 1024
531099 1024
531103 1024
531107 1024
531111 1024
531115 1024
531119 1024
531123 1024
531127 1024
531131 1024
531135 1024
531139 1024
531143 1024
531147 1024
531151 1024
531155 1024
531159 1024
531163 1024
531167 1024
531171 1024
531175 1024
531179 1024
531184 1024
531188 1024
531192 1024
531196 1024
531200 1024
531204 1024
531208 1010
531212 1024
531216 1024
531220 1024
531224 1024
531228 1024
531232 1024
531236 1024
531240 1024
531244 1024
531248 1024
531252 1024
531256 1024
531260 1024
531264 1024
531268 1024
531272 1024
531276 1024
531280 1024
531284 1024
531288 1024
531292 1024
531296 1024
531300 1024
531304 1024
531308 1024
531312 1024
531316 1024
531320 1024
531324 1024
531328 1024
531332 1024
531336 1024
531340 1024
531344 1024
531348 1024
531352 1024
531356 1024
531360 1024
531364 1024
531368 1024
531372 1024
531376 1024
531380 1024
531384 1024
531388 1024
531392 1024
531396 1024
531400 1024
531404 1024
531408 1024
531412 1024
531416 1024
531420 1024
531424 1024
531428 1024
531432 1024
531436 1024
531440 1024
531444 1024
531448 1024
531452 1024
531456 1024
531460 1024
531464 1024
531468 1024
531472 1024
531476 1024
531480 1024
531484 1024
531488 1024
531492 1024
531496 1024
531500 1024
531504 1024
531508 1024
531512 1024
531516 1024
531521 1024
531525 1024
531529 1024
531533 1024
531537 1024
531541 1024
531545 1024
531549 1024
531553 1024
531557 1024
531561 1024
531565 1024
531569 1024
531573 1024
531577 1024
531581 1024
531585 1024
531589 1024
531593 1024
531597 1024
531601 1024
531605 1024
531609 1024
531613 1024
531617 1024
531621 1024
531625 1024
531629 1024
531633 1024
531637 1024
531641 1024
531645 1024
531649 1024
531653 1024
531657 1024
531661 1024
531665 1024
531669 1024
531673 1024
531677 1024
531681 1024
531685 1024
531689 1024
531693 1024
531697 1024
531701 1024
531706 1024
531710 1024
531714 1024
531718 1024
531722 1024
531726 1024
531730 1024
531734 1024
531738 1024
531742 1024
531746 1024
531750 1024
531754 1024
531758 1024
531762 1024
531766 1024
531770 1024
531774 1024
531778 1024
531782 1024
531786 1024
531790 1024
531794 1024
531798 1024
531802 1024
531806 1024
531810 1024
531814 1024
531818 1024
531822 1024
531826 1024
531830 1024
531834 1024
531838 1024
531842 1024
531846 1024
531850 1024
531854 1024
531858 1024
531862 1024
531866 1024
531870 1024
531874 1024
531878 1024
531882 1024
531886 1024
531890 1024
531894 1024
531898 1024
531902 1024
531906 1024
531910 1024
531914 1024
531918 1024
531922 1024
531926 1024
531930 1024
531934 1024
531938 1024
531942 1024
531946 1024
531951 1024
531955 1024
531959 1024
531963 1024
531967 1024
531971 1024
531975 1024
531979 1024
531983 1024
531987 1024
531991 1024
531995 1024
531999 1024
532003 1024
532007 1024
532011 1024
532015 1024
532019 1024
532023 1024
532027 1024
532031 1024
532035 1024
532039 1024
532043 1024
532047 1024
532051 1024
532055 1024
532059 1024
532063 1024
532067 1024
532071 1024
532075 1024
532079 1024
532083 1024
532087 1024
532091 1024
532095 1024
532099 1024
532103 1024
532107 1024
532111 1024
532115 1024
532119 982
532123 921
532127 916
532131 951
532135 946
532139 901
532143 888
532147 918
532151 918
532155 870
532159 850
532163 882
532167 894
532171 856
532175 828
532179 856
532183 878
532187 846
532191 811
532195 831
532199 859
532203 830
532207 786
532211 797
532215 830
532219 811
532223 765
532227 768
532231 804
532235 798
532239 757
532243 751
532247 786
532251 792
532255 782
532259 807
532263 847
532267 841
532271 778
532275 745
532279 772
532283 794
532287 758
532291 723
532295 746
532299 774
532303 748
532307 712
532311 729
532315 762
532320 736
532324 696
532328 716
532332 750
532336 736
532340 692
532344 694
532348 728
532352 714
532356 665
532360 665
532364 711
532368 717
532372 674
532376 666
532380 712
532384 728
532388 689
532392 672
532396 711
532400 735
532404 701
532408 676
532412 711
532416 739
532420 710
532424 675
532428 709
532432 752
532436 739
532440 694
532444 705
532448 737
532452 725
532456 679
532460 679
532464 718
532468 718
532472 675
532476 669
532481 711
532485 718
532489 673
532493 654
532497 689
532501 710
532505 669
532509 642
532513 669
532517 693
532521 665
532525 634
532529 660
532533 687
532537 661
532541 622
532545 637
532549 673
532553 655
532557 610
532561 616
532565 654
532569 651
532573 608
532577 604
532581 638
532585 641
532589 601
532593 590
532597 628
532601 642
532605 602
532609 580
532613 612
532617 634
532621 596
532625 560
532629 582
532633 612
532637 585
532641 549
532645 568
532649 603
532653 584
532657 541
532661 546
532665 581
532669 572
532673 526
532677 519
532681 554
532685 554
532689 512
532693 500
532697 535
532701 543
532705 499
532709 478
532713 514
532717 536
532721 500
532725 468
532729 489
532733 512
532737 476
532741 439
532745 468
532749 518
532753 521
532757 512
532761 560
532765 637
532769 654
532773 609
532777 585
532781 582
532785 544
532789 478
532793 459
532797 493
532801 504
532805 466
532809 451
532813 488
532817 505
532821 466
532825 439
532829 468
532834 496
532837 472
532842 446
532846 472
532850 507
532854 487
532858 456
532862 473
532866 510
532870 497
532874 460
532878 470
532882 512
532886 509
532890 468
532894 463
532898 506
532902 516
532906 478
532910 468
532914 506
532918 521
532922 483
532927 470
532931 518
532935 541
532939 507
532943 486
532947 516
532951 535
532955 505
532959 480
532963 508
532967 540
532971 518
532975 488
532979 511
532983 542
532987 521
532991 483
532995 497
532999 533
533003 521
533007 478
533011 482
533015 524
533019 526
533023 487
533027 483
533031 524
533035 540
533039 502
533043 482
533047 507
533051 512
533055 462
533059 428
533063 450
533067 469
533071 430
533075 388
533079 412
533083 450
533087 430
533091 389
533095 400
533099 438
533103 427
533107 387
533111 397
533115 446
533119 442
533123 397
533127 393
533131 438
533135 446
533139 402
533143 393
533147 438
533151 458
533155 415
533159 393
533163 432
533167 463
533171 437
533175 405
533179 439
533183 473
533187 450
533191 409
533195 430
533199 469
533203 459
533207 424
533211 437
533215 480
533219 475
533223 434
533227 433
533231 473
533235 481
533239 442
533243 435
533247 474
533251 487
533255 451
533259 437
533263 474
533267 496
533271 461
533276 432
533280 460
533284 488
533288 463
533292 434
533296 461
533300 502
533304 487
533308 448
533312 462
533316 505
533320 496
533324 454
533328 459
533332 502
533336 508
533340 470
533344 465
533348 505
533352 511
533356 466
533360 447
533364 482
533368 502
533372 474
533376 454
533380 481
533384 499
533388 464
533392 433
533396 461
533400 497
533404 480
533408 446
533412 465
533416 499
533420 478
533424 436
533428 447
533432 499
533436 519
533440 513
533444 545
533448 614
533452 634
533456 581
533460 542
533464 542
533468 525
533472 472
533476 441
533480 470
533484 493
533488 464
533492 442
533496 472
533500 504
533504 480
533508 444
533512 459
533516 493
533520 478
533524 447
533528 461
533532 500
533536 494
533540 453
533544 456
533548 499
533552 504
533556 460
533560 450
533564 493
533568 506
533572 468
533576 448
533580 484
533585 514
533588 488
533592 465
533596 493
533601 521
533605 497
533609 465
533613 489
533617 526
533621 508
533625 471
533629 487
533633 526
533637 520
533641 484
533645 493
533649 534
533653 535
533657 498
533661 499
533665 542
533669 554
533673 519
533677 506
533681 545
533685 567
533689 536
533693 519
533697 553
533701 581
533705 558
533709 534
533713 562
533717 597
533721 571
533725 542
533729 567
533733 596
533737 570
533741 528
533745 544
533749 586
533754 576
533758 530
533762 532
533766 569
533770 567
533774 529
533778 535
533782 582
533786 588
533790 543
533794 530
533798 574
533802 597
533806 564
533810 546
533814 584
533818 614
533822 589
533826 570
533830 605
533834 638
533838 615
533842 585
533846 610
533850 652
533854 641
533858 610
533862 633
533866 681
533870 685
533874 650
533878 655
533882 701
533886 708
533890 669
533894 670
533898 718
533902 733
533906 694
533910 686
533914 729
533918 754
533922 721
533926 689
533930 722
533934 756
533938 734
533942 706
533946 734
533950 770
533954 752
533958 716
533962 728
533966 766
533970 758
533974 720
533978 729
533982 777
533986 781
533990 738
533994 734
533998 776
534002 786
534006 749
534010 740
534014 784
534018 809
534022 776
534026 752
534030 780
534034 801
534038 769
534042 738
534046 764
534050 795
534054 769
534058 734
534062 750
534066 793
534070 781
534074 736
534078 732
534082 766
534086 765
534090 726
534094 724
534098 764
534102 798
534106 1016
